115.17007446	2.09803915
115.17007446	2.39215684
115.17423248	3.19607854
115.17817688	3.82352948
115.18235779	4.00000000
115.18235779	3.47058821
115.18632507	2.58823538
115.19050598	1.86274505
115.19458771	2.15686274
115.19458771	3.05882359
115.19874573	3.54901958
115.20288849	3.80392146
115.20702362	2.98039222
115.20702362	2.09803915
115.21101379	1.66666663
115.21527100	2.31372547
115.21527100	3.19607854
115.21927643	3.64705873
115.22328949	3.41176462
115.22740936	2.31372547
115.22740936	1.58823526
115.23149872	1.72549021
115.23564148	2.62745094
115.23976898	3.43137264
115.23976898	3.68627453
115.24376678	3.00000000
115.24791718	2.01960778
115.25195313	1.52941179
115.25195313	2.01960778
115.25614166	2.86274505
115.26026154	3.49019599
115.26026154	3.49019599
115.26423645	2.50980401
115.26835632	1.72549021
115.27250671	1.52941179
115.27250671	2.49019599
115.27661133	3.01960778
115.28054047	3.56862736
115.28471375	3.13725495
115.28471375	2.17647052
115.28890228	1.49019611
115.29301453	1.68627453
115.29714966	2.58823538
115.29714966	3.33333325
115.30130768	3.45098042
115.30529785	2.74509811
115.30529785	1.92156863
115.30944824	1.52941179
115.31342316	2.15686274
115.31755829	2.94117641
115.31755829	3.49019599
115.32167053	3.54901958
115.32582092	2.80392146
115.32994843	1.94117641
115.32994843	1.68627453
115.33393097	2.45098042
115.33804321	3.33333325
115.34217834	3.64705873
115.34217834	3.29411769
115.34632111	2.25490189
115.35041809	1.74509799
115.35041809	1.96078432
115.35439301	2.90196085
115.35856628	3.50980401
115.36267090	3.50980401
115.36267090	2.90196085
115.36666870	2.07843137
115.37080383	1.82352936
115.37491608	2.00000000
115.37491608	2.78431368
115.37907410	3.54901958
115.38317108	3.54901958
115.38735962	2.62745094
115.38735962	1.86274505
115.39129639	1.82352936
115.39540863	2.56862736
115.39540863	3.27450991
115.39955139	3.76470590
115.40353394	3.27450991
115.40766144	2.17647052
115.40766144	1.45098042
115.41176605	1.78431368
115.41589355	2.74509811
115.42004395	3.49019599
115.42004395	3.66666675
115.42406464	3.01960778
115.42816925	2.01960778
115.43229675	1.68627453
115.43229675	2.23529410
115.43644714	2.94117641
115.44058228	3.41176462
115.44058228	3.23529410
115.44448853	2.13725495
115.44866943	1.41176474
115.45281982	1.37254906
115.45281982	2.15686274
115.45694733	2.86274505
115.46091461	3.17647052
115.46504974	2.66666675
115.46504974	1.70588231
115.46920013	0.78431374
115.47332001	1.37254906
115.47731018	2.29411769
115.47731018	2.90196085
115.48141479	2.96078420
115.48551941	2.23529410
115.48551941	1.45098042
115.48966217	1.15686274
115.49361420	2.09803915
115.49774933	3.13725495
115.49774933	3.62745094
115.50189209	3.33333325
115.50600433	2.50980401
115.51011658	1.96078432
115.51011658	2.07843137
115.51426697	2.94117641
115.51818848	3.62745094
115.52235413	3.74509811
115.52235413	3.27450991
115.52645874	2.39215684
115.53057098	1.92156863
115.53057098	2.11764717
115.53459930	2.90196085
115.53868866	3.58823538
115.54285431	3.49019599
115.54285431	2.78431368
115.54688263	1.84313726
115.55093384	1.58823526
115.55524445	2.09803915
115.55524445	2.50980401
115.55918884	2.43137264
115.56333160	1.56862748
115.56732941	0.17647059
115.56732941	0.00000000
115.57147980	0.01960784
115.57557678	0.47058824
115.57557678	1.56862748
115.57969666	2.72549009
115.58370972	3.62745094
115.58777618	3.74509811
115.58777618	3.74509811
115.59198761	4.41176462
115.59613800	4.98039198
115.60026550	4.98039198
115.60026550	4.96078444
115.60417938	3.92156863
115.60834503	2.82352948
115.61251831	2.35294127
115.61251831	2.86274505
115.61664581	3.41176462
115.62058258	3.76470590
115.62058258	3.58823538
115.62471771	2.66666675
115.62879944	2.01960778
115.63293457	1.78431368
115.63293457	2.66666675
115.63701630	3.50980401
115.64130402	3.58823538
115.64529419	3.13725495
115.64529419	2.15686274
115.64943695	1.62745094
115.65341949	2.19607854
115.65753937	2.88235283
115.65753937	3.50980401
115.66162872	3.50980401
115.66575623	2.76470590
115.66575623	1.84313726
115.66991425	1.64705884
115.67393494	2.47058821
115.67804718	3.27450991
115.67804718	3.54901958
115.68215179	3.31372547
115.68624878	2.37254906
115.69040680	1.62745094
115.69040680	1.84313726
115.69441223	2.74509811
115.69850922	3.27450991
115.70264435	3.37254906
115.70264435	2.88235283
115.70677185	1.80392158
115.71076965	1.35294116
115.71076965	1.80392158
115.71488953	2.70588231
115.71907806	3.29411769
115.72322083	3.17647052
115.72322083	2.41176462
115.72732544	1.54901958
115.73130798	1.39215684
115.73542023	2.05882359
115.73542023	2.88235283
115.73954773	3.13725495
115.74367523	2.74509811
115.74765778	1.84313726
115.74765778	1.19607842
115.75178528	1.41176474
115.75592041	2.31372547
115.75592041	2.84313726
115.76004028	2.98039222
115.76406860	2.35294127
115.76829529	1.47058821
115.76829529	0.92156863
115.77229309	1.33333337
115.77639771	1.96078432
115.78050232	2.54901958
115.78050232	2.54901958
115.78450775	1.52941179
115.78860474	0.80392158
115.79274750	0.49019608
115.79274750	1.17647064
115.79688263	1.86274505
115.80098724	2.23529410
115.80098724	1.94117641
115.80501556	1.11764705
115.80914307	0.39215687
115.81325531	0.41176471
115.81325531	1.23529410
115.81726074	1.86274505
115.82135010	2.13725495
115.82549286	1.52941179
115.82549286	0.64705884
115.82963562	0.33333334
115.83363342	0.84313726
115.83770752	1.74509799
115.83770752	2.41176462
115.84187317	2.47058821
115.84599304	1.74509799
115.85018921	0.82352942
115.85428619	1.92156863
115.85829163	2.84313726
115.85829163	3.50980401
115.86241913	3.21568632
115.86653900	2.41176462
115.87082672	1.86274505
115.87082672	2.17647052
115.87467957	3.05882359
115.87879181	3.72549009
115.88291931	3.80392146
115.88291931	3.39215684
115.88703156	2.45098042
115.89099884	2.07843137
115.89519501	3.52941179
115.89929199	3.98039222
115.90341187	3.92156863
115.90341187	3.07843137
115.90740204	2.21568632
115.91150665	2.21568632
115.91563416	2.96078420
115.91563416	3.68627453
115.91976929	4.03921556
115.92375183	3.66666675
115.92787933	2.74509811
115.92787933	1.90196073
115.93200684	2.35294127
115.93611908	3.17647052
115.94038391	3.86274505
115.94425964	3.17647052
115.94841003	2.31372547
115.94841003	1.94117641
115.95252991	2.45098042
115.95678711	3.25490189
115.96082306	3.70588231
115.96082306	3.50980401
115.96478271	2.70588231
115.96894836	2.03921580
115.97305298	2.03921580
115.97305298	2.74509811
115.97705078	3.15686274
115.98126221	3.52941179
115.98528290	2.07843137
115.98944092	1.56862748
115.99353790	1.96078432
115.99353790	2.70588231
115.99753571	3.25490189
116.00167084	3.45098042
116.00573730	2.72549009
116.00573730	1.78431368
116.00982666	1.43137252
116.01386261	2.13725495
116.01800537	2.92156863
116.01800537	3.33333325
116.02213287	3.13725495
116.02626038	2.37254906
116.03040314	1.76470590
116.03439331	2.35294127
116.03857422	3.13725495
116.03857422	3.41176462
116.04260254	3.00000000
116.04675293	2.09803915
116.05081940	1.37254906
116.05081940	1.76470590
116.05480194	2.74509811
116.05891418	3.33333325
116.06311798	3.45098042
116.06311798	2.62745094
116.06725311	1.74509799
116.07120514	1.56862748
116.07536316	3.11764717
116.07949829	3.62745094
116.08363342	3.43137264
116.08363342	2.58823538
116.08753204	1.80392158
116.09175873	1.86274505
116.09586334	2.70588231
116.09586334	3.43137264
116.10000610	3.68627453
116.10399628	3.19607854
116.10825348	2.21568632
116.10825348	1.82352936
116.11223602	2.25490189
116.11637115	3.03921580
116.12054443	3.72549009
116.12453461	3.11764717
116.12866974	2.19607854
116.12866974	1.88235295
116.13278198	2.50980401
116.13690948	3.33333325
116.14103699	3.86274505
116.14103699	3.62745094
116.14503479	2.74509811
116.14917755	1.84313726
116.15318298	1.88235295
116.15318298	2.74509811
116.15714264	3.47058821
116.16136169	3.60784316
116.16545105	2.09803915
116.16954803	1.58823526
116.17374420	2.07843137
116.17374420	2.86274505
116.17770386	3.31372547
116.18179321	3.21568632
116.18592072	2.52941179
116.18592072	1.64705884
116.19005585	1.37254906
116.19416809	1.98039210
116.19820404	2.68627453
116.19820404	2.88235283
116.20228577	2.56862736
116.20645142	1.80392158
116.21054077	1.27450979
116.21454620	2.03921580
116.21866608	2.60784316
116.21866608	2.80392146
116.22280884	2.23529410
116.22698975	1.37254906
116.23101044	1.17647064
116.23101044	1.70588231
116.23516083	2.72549009
116.23923492	3.43137264
116.24331665	3.33333325
116.24331665	2.68627453
116.24732208	1.98039210
116.25148773	1.70588231
116.25559998	3.43137264
116.25971222	3.52941179
116.26383209	3.19607854
116.26383209	2.29411769
116.26782990	1.80392158
116.27196503	2.25490189
116.27604675	2.92156863
116.27604675	3.72549009
116.28026581	3.78431368
116.28423309	3.09803915
116.28832245	2.13725495
116.28832245	1.68627453
116.29248810	2.19607854
116.29661560	2.86274505
116.30071259	2.52941179
116.30468750	0.98039216
116.30882263	0.00000000
116.30882263	0.00000000
116.31295776	0.27450982
116.31707764	0.60784316
116.32122040	1.47058821
116.32122040	2.25490189
116.32517242	2.80392146
116.32932281	3.37254906
116.33343506	3.98039222
116.33343506	4.98039198
116.33752441	4.98039198
116.34159851	4.98039198
116.34574127	3.41176462
116.34988403	2.66666675
116.35408020	2.98039222
116.35408020	3.56862736
116.35797882	3.92156863
116.36211395	3.76470590
116.36624146	2.80392146
116.36624146	1.98039210
116.37033081	1.68627453
116.37432098	2.35294127
116.37842560	3.25490189
116.37842560	3.78431368
116.38259125	3.35294127
116.38667297	2.39215684
116.39072418	1.94117641
116.39482117	2.70588231
116.39894867	3.43137264
116.39894867	3.66666675
116.40306854	2.88235283
116.40724945	2.09803915
116.41120148	1.50980389
116.41120148	2.07843137
116.41537476	3.03921580
116.41950989	3.70588231
116.42362976	3.62745094
116.42362976	2.78431368
116.42756653	1.76470590
116.43169403	1.64705884
116.43585205	3.45098042
116.43996429	3.72549009
116.44409943	3.35294127
116.44409943	2.33333325
116.44819641	1.60784316
116.45219421	1.86274505
116.45636749	2.76470590
116.45636749	3.52941179
116.46046448	3.68627453
116.46447754	3.00000000
116.46862030	1.86274505
116.46862030	1.39215684
116.47274017	2.21568632
116.47685242	3.01960778
116.48087311	3.47058821
116.48491669	2.47058821
116.48919678	1.68627453
116.48919678	1.68627453
116.49317169	2.50980401
116.49730682	3.03921580
116.50129700	3.49019599
116.50129700	2.94117641
116.50547028	1.94117641
116.50956726	1.49019611
116.51370239	1.82352936
116.51370239	2.47058821
116.51772308	3.05882359
116.52186584	3.37254906
116.52597809	1.50980389
116.53013611	1.03921568
116.53426361	1.72549021
116.53426361	2.54901958
116.53819275	2.96078420
116.54236603	2.76470590
116.54648590	1.78431368
116.54648590	0.98039216
116.55062866	1.07843137
116.55457306	1.92156863
116.55872345	2.60784316
116.55872345	2.82352948
116.56281281	2.49019599
116.56693268	1.49019611
116.57092285	1.31372547
116.57514954	2.33333325
116.57922363	2.94117641
116.57922363	3.09803915
116.58328247	2.35294127
116.58744812	1.47058821
116.59145355	1.47058821
116.59145355	2.39215684
116.59558105	3.37254906
116.59972382	4.11764717
116.60389709	4.00000000
116.60389709	3.17647052
116.60787201	2.43137264
116.61197662	2.33333325
116.61610413	4.31372547
116.62033081	4.90196085
116.62438965	4.43137264
116.62438965	3.21568632
116.62838745	2.45098042
116.63249207	3.17647052
116.63660431	4.21568632
116.63660431	4.84313726
116.64079285	4.98039198
116.64476013	4.11764717
116.64887238	2.82352948
116.64887238	2.52941179
116.65293884	3.41176462
116.65702057	4.01960802
116.66123962	4.52941179
116.66517639	3.29411769
116.66930389	2.31372547
116.66930389	2.37254906
116.67346191	3.52941179
116.67757416	4.27450991
116.68160248	4.52941179
116.68160248	3.90196085
116.68569946	2.64705873
116.68985748	1.96078432
116.69393921	2.62745094
116.69393921	3.58823538
116.69796753	4.29411745
116.70219421	4.29411745
116.70623016	2.15686274
116.71031952	1.78431368
116.71444702	2.84313726
116.71444702	3.78431368
116.71846008	4.35294104
116.72257996	3.76470590
116.72669983	2.52941179
116.72669983	1.78431368
116.73086548	1.78431368
116.73486328	2.94117641
116.73907471	3.92156863
116.73907471	4.21568632
116.74315643	3.56862736
116.74730682	2.27450991
116.75129700	2.17647052
116.75539398	3.09803915
116.75950623	3.92156863
116.75950623	4.13725471
116.76364136	3.09803915
116.76773071	1.82352936
116.77178955	1.35294116
116.77178955	2.47058821
116.77587891	3.47058821
116.77999115	4.15686274
116.78412628	3.94117641
116.78412628	2.54901958
116.78826141	1.52941179
116.79225159	1.70588231
116.79636383	4.00000000
116.80042267	4.31372547
116.80455780	3.41176462
116.80455780	2.11764717
116.80854797	1.27450979
116.81266785	2.31372547
116.81678009	3.52941179
116.81678009	4.41176462
116.82087708	4.21568632
116.82495117	3.11764717
116.82922363	2.13725495
116.82922363	1.78431368
116.83322144	2.68627453
116.83740234	3.82352948
116.84133148	3.84313726
116.84547424	2.56862736
116.84958649	1.76470590
116.84958649	1.94117641
116.85372925	3.11764717
116.85772705	4.00000000
116.86182404	4.41176462
116.86182404	3.52941179
116.86598206	2.03921580
116.87018585	1.23529410
116.87430573	1.96078432
116.87430573	3.19607854
116.87828827	3.92156863
116.88240051	3.78431368
116.88652802	1.37254906
116.89065552	1.19607842
116.89474487	2.15686274
116.89474487	3.11764717
116.89878082	3.58823538
116.90287781	3.09803915
116.90698242	1.76470590
116.90698242	1.13725495
116.91098785	1.72549021
116.91526794	3.09803915
116.91925049	3.86274505
116.91925049	4.05882359
116.92333221	3.50980401
116.92762756	2.39215684
116.93153381	2.78431368
116.93563843	3.86274505
116.93978119	4.31372547
116.93978119	4.11764717
116.94381714	3.21568632
116.94791412	1.96078432
116.95202637	1.92156863
116.95202637	2.92156863
116.95606232	3.84313726
116.96019745	4.45098019
116.96437836	4.09803915
116.96437836	2.80392146
116.96835327	1.70588231
116.97248077	1.70588231
116.97660828	3.52941179
116.98075104	3.58823538
116.98487091	2.27450991
116.98487091	0.56862748
116.98885345	0.00000000
116.99298859	0.27450982
116.99713135	0.78431374
116.99713135	1.52941179
117.00115967	1.94117641
117.00517273	2.13725495
117.00927734	2.54901958
117.00927734	3.49019599
117.01340485	4.98039198
117.01753235	4.98039198
117.02162933	4.88235283
117.02577209	3.58823538
117.02988434	2.68627453
117.02988434	2.66666675
117.03397369	3.19607854
117.03795624	3.70588231
117.04229736	3.90196085
117.04229736	2.82352948
117.04627991	1.54901958
117.05037689	1.07843137
117.05437469	1.96078432
117.05437469	2.92156863
117.05847931	3.39215684
117.06262207	3.17647052
117.06672668	1.01960790
117.07075500	1.09803927
117.07497406	2.01960778
117.07497406	3.00000000
117.07891083	3.31372547
117.08302307	2.72549009
117.08721924	1.66666663
117.08721924	0.94117647
117.09121704	1.37254906
117.09527588	2.23529410
117.09938049	3.11764717
117.09938049	3.27450991
117.10353088	2.17647052
117.10768890	1.07843137
117.11164856	1.62745094
117.11585236	2.56862736
117.11997223	3.17647052
117.11997223	2.62745094
117.12407684	1.56862748
117.12818146	0.84313726
117.13215637	0.98039216
117.13215637	2.00000000
117.13628387	2.86274505
117.14044189	2.94117641
117.14454651	2.31372547
117.14454651	1.15686274
117.14852905	0.60784316
117.15267181	1.13725495
117.15680695	2.68627453
117.16090393	2.72549009
117.16510010	1.98039210
117.16510010	0.90196079
117.16925049	0.68627453
117.17326355	1.33333337
117.17737579	2.15686274
117.17737579	2.80392146
117.18135834	2.58823538
117.18543243	1.54901958
117.18959808	0.62745100
117.18959808	0.58823532
117.19370270	1.35294116
117.19776917	2.15686274
117.20181274	2.05882359
117.20593262	1.00000000
117.21009827	0.21568628
117.21009827	0.74509805
117.21416473	1.52941179
117.21819305	1.90196073
117.22232056	2.13725495
117.22232056	1.33333337
117.22643280	0.25490198
117.23062134	0.19607843
117.23474884	0.96078432
117.23474884	1.88235295
117.23872375	2.35294127
117.24286652	2.00000000
117.24697876	0.09803922
117.25109863	0.41176471
117.25523376	1.43137252
117.25523376	2.41176462
117.25926208	2.62745094
117.26338196	1.98039210
117.26748657	1.25490201
117.26748657	0.88235295
117.27150726	1.68627453
117.27563477	2.54901958
117.27976990	3.39215684
117.27976990	3.68627453
117.28400421	3.01960778
117.28789520	2.13725495
117.29188538	2.86274505
117.29604340	3.96078420
117.30016327	4.50980377
117.30016327	4.15686274
117.30429840	3.19607854
117.30826569	2.33333325
117.31246948	2.54901958
117.31246948	3.68627453
117.31661987	4.37254906
117.32082367	4.56862736
117.32484436	3.94117641
117.32484436	2.88235283
117.32880402	2.29411769
117.33290863	2.92156863
117.33701324	4.47058821
117.34120941	4.41176462
117.34513092	3.41176462
117.34513092	2.39215684
117.34931183	2.09803915
117.35342407	2.72549009
117.35756683	3.68627453
117.35756683	4.31372547
117.36154175	3.92156863
117.36564636	2.86274505
117.36985016	2.11764717
117.36985016	2.11764717
117.37398529	3.13725495
117.37810516	4.01960802
117.38224792	3.41176462
117.38617706	2.09803915
117.39035034	1.66666663
117.39035034	2.43137264
117.39443970	3.21568632
117.39840698	3.72549009
117.40258789	3.62745094
117.40258789	2.68627453
117.40669250	1.80392158
117.41078949	1.64705884
117.41487122	2.50980401
117.41487122	3.35294127
117.41893768	3.80392146
117.42306519	3.41176462
117.42722321	1.64705884
117.43136597	1.90196073
117.43534851	2.92156863
117.43534851	3.62745094
117.43945313	3.74509811
117.44354248	3.03921580
117.44766235	1.90196073
117.44766235	1.35294116
117.45164490	2.05882359
117.45583344	3.23529410
117.45991516	3.90196085
117.45991516	3.64705873
117.46403503	2.54901958
117.46814728	1.56862748
117.47218323	2.45098042
117.47627258	3.15686274
117.48044586	3.80392146
117.48044586	3.49019599
117.48462677	2.13725495
117.48862457	1.39215684
117.49269867	1.96078432
117.49269867	2.96078420
117.49687958	3.72549009
117.50093079	3.78431368
117.50507355	2.98039222
117.50507355	1.98039210
117.50914001	1.54901958
117.51315308	2.19607854
117.51730347	3.70588231
117.52138519	3.50980401
117.52542114	2.45098042
117.52542114	1.25490201
117.52952576	1.37254906
117.53367615	2.33333325
117.53776550	3.17647052
117.53776550	3.66666675
117.54177856	3.09803915
117.54596710	1.86274505
117.55010223	1.00000000
117.55010223	1.54901958
117.55414581	2.31372547
117.55831909	3.05882359
117.56233978	2.05882359
117.56647491	0.88235295
117.57054901	0.52941179
117.57054901	1.64705884
117.57469177	2.54901958
117.57868958	3.17647052
117.58277893	3.07843137
117.58277893	2.27450991
117.58695984	1.45098042
117.59106445	1.54901958
117.59516907	2.64705873
117.59516907	3.66666675
117.59914398	3.96078420
117.60329437	3.27450991
117.60747528	1.68627453
117.61140442	2.25490189
117.61560822	3.19607854
117.61560822	3.72549009
117.61970520	3.84313726
117.62383270	3.13725495
117.62791443	2.19607854
117.62791443	1.84313726
117.63192749	2.41176462
117.63602448	3.00000000
117.64024353	3.52941179
117.64024353	3.60784316
117.64432526	2.66666675
117.64842987	1.62745094
117.65238953	1.96078432
117.65660095	2.01960778
117.66064453	1.98039210
117.66064453	1.07843137
117.66484070	0.00000000
117.66883087	0.00000000
117.67298126	0.43137255
117.67298126	1.90196073
117.67709351	3.70588231
117.68124390	4.98039198
117.68530273	4.98039198
117.68530273	4.58823538
117.68935394	4.00000000
117.69340515	4.56862736
117.69751740	4.98039198
117.70159149	4.80392170
117.70571136	3.37254906
117.70571136	2.03921580
117.70980072	1.76470590
117.71385956	2.72549009
117.71805573	3.39215684
117.71805573	3.80392146
117.72221375	3.13725495
117.72615051	1.66666663
117.73037720	1.11764705
117.73037720	1.64705884
117.73448944	2.47058821
117.73863220	3.29411769
117.74260712	2.29411769
117.74672699	1.39215684
117.75087738	1.31372547
117.75087738	2.17647052
117.75493622	3.15686274
117.75891876	3.29411769
117.76316833	2.98039222
117.76316833	2.03921580
117.76715851	1.39215684
117.77140045	1.47058821
117.77539825	2.37254906
117.77539825	3.05882359
117.77951813	3.39215684
117.78366089	2.84313726
117.78770447	0.96078432
117.79176331	1.47058821
117.79586792	2.45098042
117.79586792	3.33333325
117.79998016	3.33333325
117.80423737	2.39215684
117.80828094	1.31372547
117.80828094	1.01960790
117.81224060	1.96078432
117.81634521	2.84313726
117.82052612	3.41176462
117.82052612	2.98039222
117.82465363	1.47058821
117.82859802	0.76470590
117.83275604	2.29411769
117.83684540	3.15686274
117.84100342	3.45098042
117.84100342	2.80392146
117.84499359	1.60784316
117.84922791	0.80392158
117.85324097	1.21568632
117.85324097	2.37254906
117.85731506	2.98039222
117.86141205	2.98039222
117.86539459	2.07843137
117.86539459	1.03921568
117.86952209	0.62745100
117.87368011	1.45098042
117.87777710	3.00000000
117.88177490	2.56862736
117.88587952	1.31372547
117.88587952	0.41176471
117.89014435	0.72549021
117.89414978	1.66666663
117.89826202	2.45098042
117.89826202	2.64705873
117.90233612	1.94117641
117.90641785	0.64705884
117.91053772	0.05882353
117.91053772	0.72549021
117.91464233	1.98039210
117.91864777	2.74509811
117.92282104	1.58823526
117.92686462	0.52941179
117.93108368	0.70588237
117.93108368	1.62745094
117.93523407	2.39215684
117.93924713	2.90196085
117.94332123	2.74509811
117.94332123	1.86274505
117.94739532	1.23529410
117.95151520	1.72549021
117.95552826	2.96078420
117.95552826	3.76470590
117.95961761	4.17647076
117.96378326	3.52941179
117.96788788	1.94117641
117.97190857	2.68627453
117.97614288	3.62745094
117.97614288	4.50980377
117.98014069	4.52941179
117.98431396	3.43137264
117.98841858	2.39215684
117.98841858	2.19607854
117.99245453	3.09803915
117.99657440	4.03921556
118.00070190	4.56862736
118.00070190	4.17647076
118.00479126	2.90196085
118.00879669	1.92156863
118.01289368	3.60784316
118.01699829	4.35294104
118.02123260	4.52941179
118.02123260	3.68627453
118.02519226	2.56862736
118.02930450	1.94117641
118.03339386	2.74509811
118.03339386	3.78431368
118.03750610	4.33333349
118.04154205	4.13725471
118.04570770	3.19607854
118.04570770	2.23529410
118.04985046	2.17647052
118.05396271	3.00000000
118.05812073	4.11764717
118.06223297	3.66666675
118.06622314	2.45098042
118.06622314	1.66666663
118.07033539	2.09803915
118.07453918	3.01960778
118.07863617	3.92156863
118.07863617	4.00000000
118.08261108	2.94117641
118.08676147	1.94117641
118.09086609	1.50980389
118.09086609	2.43137264
118.09497070	3.50980401
118.09903717	3.98039222
118.10317993	2.54901958
118.10719299	1.82352936
118.11128998	1.90196073
118.11128998	2.64705873
118.11526489	3.29411769
118.11941528	3.84313726
118.12355042	3.50980401
118.12355042	2.31372547
118.12764740	1.54901958
118.13186646	1.78431368
118.13585663	2.82352948
118.13585663	3.64705873
118.13996124	3.90196085
118.14408875	3.07843137
118.14824677	1.37254906
118.15222168	2.27450991
118.15639496	3.23529410
118.15639496	3.86274505
118.16052246	3.62745094
118.16466522	2.47058821
118.16876984	1.50980389
118.16876984	1.62745094
118.17276001	2.76470590
118.17691040	3.72549009
118.18104553	4.01960802
118.18104553	3.27450991
118.18516541	1.94117641
118.18923950	1.31372547
118.19326782	3.09803915
118.19737244	3.70588231
118.20146942	3.72549009
118.20146942	3.09803915
118.20549774	2.01960778
118.20951843	1.54901958
118.21366119	2.33333325
118.21366119	3.25490189
118.21775818	3.84313726
118.22190094	3.64705873
118.22586823	2.33333325
118.22586823	1.45098042
118.22998810	1.68627453
118.23417664	2.84313726
118.23831177	3.90196085
118.24230194	3.17647052
118.24644470	2.03921580
118.24644470	1.15686274
118.25058746	1.88235295
118.25467682	3.03921580
118.25885010	3.54901958
118.25885010	3.45098042
118.26278687	2.52941179
118.26689148	1.62745094
118.27101898	1.41176474
118.27101898	2.39215684
118.27528381	3.21568632
118.27926636	3.31372547
118.28340149	1.92156863
118.28760529	1.19607842
118.29162598	1.45098042
118.29162598	2.47058821
118.29555511	3.15686274
118.29975891	3.37254906
118.30390167	3.00000000
118.30390167	1.98039210
118.30802917	1.37254906
118.31198883	2.05882359
118.31622314	3.23529410
118.31622314	3.88235283
118.32026672	4.01960802
118.32444763	3.01960778
118.32851410	1.66666663
118.33249664	2.64705873
118.33660126	3.50980401
118.33660126	4.15686274
118.34070587	3.86274505
118.34477234	2.68627453
118.34891510	2.03921580
118.34891510	2.29411769
118.35289764	3.11764717
118.35705566	3.76470590
118.36113739	4.03921556
118.36113739	3.27450991
118.36529541	2.17647052
118.36927795	1.41176474
118.37345886	2.19607854
118.37759399	2.21568632
118.38173676	1.74509799
118.38173676	0.25490198
118.38571930	0.00000000
118.38979340	0.07843138
118.39390564	1.03921568
118.39390564	2.66666675
118.39801788	4.47058821
118.40214539	4.98039198
118.40628815	4.49019623
118.40628815	3.88235283
118.41040039	4.07843161
118.41448975	4.98039198
118.41871643	4.98039198
118.42272186	4.13725471
118.42669678	2.54901958
118.42669678	1.84313726
118.43085480	2.31372547
118.43490601	3.33333325
118.43908691	3.82352948
118.43908691	3.56862736
118.44313049	2.54901958
118.44717407	1.60784316
118.45136261	1.56862748
118.45136261	2.47058821
118.45549774	3.17647052
118.45942688	3.60784316
118.46354675	2.35294127
118.46765900	1.47058821
118.47182465	1.45098042
118.47182465	2.31372547
118.47583008	3.29411769
118.47992706	3.58823538
118.48406982	2.94117641
118.48406982	1.64705884
118.48815918	1.07843137
118.49212646	1.94117641
118.49625397	2.92156863
118.49625397	3.52941179
118.50042725	3.23529410
118.50463104	2.31372547
118.50875092	1.21568632
118.51271057	2.09803915
118.51683807	3.07843137
118.51683807	3.21568632
118.52088165	2.90196085
118.52503204	1.84313726
118.52915955	1.17647064
118.52915955	1.54901958
118.53312683	2.62745094
118.53726196	3.09803915
118.54154205	3.29411769
118.54154205	2.41176462
118.54550934	1.43137252
118.54963684	0.90196079
118.55377197	2.62745094
118.55788422	3.27450991
118.56199646	2.78431368
118.56199646	1.80392158
118.56601715	0.82352942
118.57025909	0.78431374
118.57421112	1.78431368
118.57421112	2.68627453
118.57826233	2.96078420
118.58231354	2.31372547
118.58645630	1.41176474
118.58645630	0.54901963
118.59055328	1.03921568
118.59466553	1.98039210
118.59876251	2.62745094
118.60279083	1.96078432
118.60688019	0.80392158
118.60688019	0.27450982
118.61106110	0.80392158
118.61518860	1.90196073
118.61930084	2.54901958
118.61930084	2.43137264
118.62334442	1.19607842
118.62744904	0.17647059
118.63155365	0.27450982
118.63155365	1.19607842
118.63560486	2.15686274
118.63970947	2.43137264
118.64379883	0.56862748
118.64792633	0.09803922
118.65200806	0.72549021
118.65200806	1.84313726
118.65617371	2.78431368
118.66017914	2.64705873
118.66430664	1.86274505
118.66430664	0.98039216
118.66841888	0.88235295
118.67241669	2.23529410
118.67653656	3.17647052
118.67653656	3.56862736
118.68064880	3.41176462
118.68483734	2.39215684
118.68898010	1.94117641
118.69293976	3.07843137
118.69722748	3.88235283
118.69722748	4.17647076
118.70123291	3.52941179
118.70531464	2.25490189
118.70942688	1.52941179
118.70942688	2.15686274
118.71341705	3.31372547
118.71755219	4.11764717
118.72180939	4.19607830
118.72180939	3.27450991
118.72577667	2.09803915
118.72989655	1.90196073
118.73400879	3.66666675
118.73810577	4.15686274
118.74222565	3.92156863
118.74222565	2.37254906
118.74619293	1.64705884
118.75039673	1.78431368
118.75444794	2.88235283
118.75444794	3.76470590
118.75851440	4.05882359
118.76251984	3.25490189
118.76670074	2.21568632
118.76670074	1.60784316
118.77088928	2.13725495
118.77493286	2.90196085
118.77905273	3.78431368
118.78316498	2.86274505
118.78717804	1.74509799
118.78717804	1.35294116
118.79132843	2.23529410
118.79543304	3.09803915
118.79943848	3.70588231
118.79943848	3.39215684
118.80354309	2.33333325
118.80770874	1.54901958
118.81179810	1.64705884
118.81179810	2.62745094
118.81583405	3.47058821
118.81995392	3.72549009
118.82408905	1.84313726
118.82816315	1.13725495
118.83227539	1.74509799
118.83227539	2.98039222
118.83626556	3.76470590
118.84049988	3.56862736
118.84450531	2.35294127
118.84450531	1.47058821
118.84867096	1.31372547
118.85266876	2.13725495
118.85678864	2.94117641
118.85678864	3.45098042
118.86089325	3.33333325
118.86501312	2.27450991
118.86917877	1.43137252
118.87322998	2.49019599
118.87734985	3.43137264
118.87734985	3.62745094
118.88148499	2.86274505
118.88560486	1.72549021
118.88955688	1.25490201
118.88955688	1.82352936
118.89364624	2.94117641
118.89777374	3.49019599
118.90188599	3.62745094
118.90188599	2.74509811
118.90603638	1.68627453
118.91025543	1.37254906
118.91427612	3.25490189
118.91838074	3.82352948
118.92254639	3.37254906
118.92254639	2.25490189
118.92648315	1.31372547
118.93058777	1.52941179
118.93477631	2.52941179
118.93477631	3.45098042
118.93895721	3.80392146
118.94280243	3.33333325
118.94688416	2.13725495
118.94688416	1.49019611
118.95108032	2.15686274
118.95518494	3.09803915
118.95913696	3.54901958
118.96327209	2.76470590
118.96738434	1.82352936
118.96738434	1.76470590
118.97158813	2.64705873
118.97564697	3.50980401
118.97964478	3.80392146
118.97964478	3.49019599
118.98375702	2.39215684
118.98786163	1.60784316
118.99203491	1.64705884
118.99203491	2.76470590
118.99613190	3.76470590
119.00017548	3.94117641
119.00426483	1.78431368
119.00848389	1.17647064
119.01260376	2.01960778
119.01260376	2.98039222
119.01657867	3.43137264
119.02071381	3.39215684
119.02482605	2.25490189
119.02482605	1.31372547
119.02893066	1.11764705
119.03291321	1.86274505
119.03713226	2.86274505
119.03713226	3.39215684
119.04119110	2.94117641
119.04529572	1.80392158
119.04930115	1.52941179
119.05338287	2.88235283
119.05753326	3.43137264
119.05753326	3.96078420
119.06163788	3.21568632
119.06575775	2.01960778
119.06980133	1.74509799
119.06980133	2.52941179
119.07396698	3.43137264
119.07808685	4.05882359
119.08223724	4.05882359
119.08223724	2.88235283
119.08621216	1.78431368
119.09027100	1.66666663
119.09439850	3.68627453
119.09851074	4.00000000
119.10263062	3.49019599
119.10263062	2.11764717
119.10665894	1.31372547
119.11077118	1.78431368
119.11489105	2.78431368
119.11489105	3.52941179
119.11900330	3.15686274
119.12315369	1.68627453
119.12712860	0.00000000
119.12712860	0.00000000
119.13130188	0.25490198
119.13545990	0.62745100
119.13945770	1.19607842
119.14352417	1.15686274
119.14763641	1.78431368
119.14763641	3.00000000
119.15176392	4.54901981
119.15586853	4.98039198
119.15987396	4.98039198
119.15987396	4.84313726
119.16401672	3.64705873
119.16812897	2.66666675
119.17225647	2.60784316
119.17225647	3.52941179
119.17625427	3.92156863
119.18038940	3.78431368
119.18454742	2.05882359
119.18871307	1.66666663
119.19284821	2.35294127
119.19284821	3.23529410
119.19683075	3.54901958
119.20098114	3.37254906
119.20505524	2.39215684
119.20505524	1.54901958
119.20915222	1.54901958
119.21313477	2.45098042
119.21726227	3.33333325
119.21726227	3.58823538
119.22149658	3.01960778
119.22554779	2.00000000
119.22953033	1.68627453
119.23362732	2.64705873
119.23777008	3.31372547
119.23777008	3.66666675
119.24192810	2.82352948
119.24595642	1.74509799
119.25022888	1.33333337
119.25022888	2.00000000
119.25424194	2.88235283
119.25841522	3.45098042
119.26253510	3.31372547
119.26253510	2.13725495
119.26651001	1.19607842
119.27065277	1.31372547
119.27477264	3.15686274
119.27888489	3.35294127
119.28301239	2.60784316
119.28301239	1.60784316
119.28699493	0.92156863
119.29113770	1.56862748
119.29526520	2.52941179
119.29526520	3.15686274
119.29925537	3.13725495
119.30340576	2.09803915
119.30751801	1.23529410
119.30751801	1.11764705
119.31163025	1.66666663
119.31577301	2.52941179
119.31974792	2.84313726
119.32403564	1.74509799
119.32788849	0.88235295
119.32788849	0.80392158
119.33202362	1.98039210
119.33615112	2.76470590
119.34020996	3.05882359
119.34020996	2.31372547
119.34428406	1.17647064
119.34844971	0.23529412
119.35257721	1.05882359
119.35257721	1.82352936
119.35666656	2.35294127
119.36072540	2.43137264
119.36483002	0.80392158
119.36898041	0.37254903
119.37310791	1.07843137
119.37310791	1.78431368
119.37722015	2.49019599
119.38123322	2.19607854
119.38535309	0.92156863
119.38535309	0.17647059
119.38938141	0.60784316
119.39350128	1.68627453
119.39763641	2.50980401
119.39763641	2.54901958
119.40174866	2.03921580
119.40587616	1.15686274
119.40986633	1.33333337
119.41387177	2.49019599
119.41800690	3.31372547
119.41800690	3.82352948
119.42214966	2.96078420
119.42616272	1.80392158
119.43025970	1.50980389
119.43025970	2.70588231
119.43437958	3.64705873
119.43852234	4.23529434
119.44268036	3.96078420
119.44268036	2.90196085
119.44670105	2.17647052
119.45084381	2.33333325
119.45495605	4.00000000
119.45903778	4.41176462
119.46316528	3.70588231
119.46316528	2.68627453
119.46712494	2.00000000
119.47126770	2.62745094
119.47545624	3.62745094
119.47545624	4.29411745
119.47942352	4.21568632
119.48356628	3.19607854
119.48760986	2.09803915
119.48760986	1.96078432
119.49180603	2.80392146
119.49591064	3.84313726
119.49994659	3.90196085
119.50424957	2.68627453
119.50821686	1.62745094
119.50821686	1.94117641
119.51228333	3.17647052
119.51629639	4.13725471
119.52040100	4.29411745
119.52040100	3.27450991
119.52455139	2.01960778
119.52870941	1.52941179
119.53282928	2.17647052
119.53282928	3.33333325
119.53678131	3.82352948
119.54090118	3.68627453
119.54506683	1.74509799
119.54918671	1.78431368
119.55315399	2.37254906
119.55315399	3.25490189
119.55736542	3.78431368
119.56143951	3.35294127
119.56560516	2.11764717
119.56560516	1.52941179
119.56958008	1.72549021
119.57368469	2.68627453
119.57779694	3.52941179
119.57779694	3.86274505
119.58190155	2.94117641
119.58603668	1.72549021
119.59020996	2.00000000
119.59416962	3.13725495
119.59828949	3.80392146
119.59828949	3.58823538
119.60241699	2.58823538
119.60643005	1.35294116
119.61054230	1.19607842
119.61054230	2.39215684
119.61470032	3.05882359
119.61884308	3.64705873
119.62298584	3.13725495
119.62298584	2.15686274
119.62698364	1.39215684
119.63108063	1.78431368
119.63522339	3.49019599
119.63935089	3.66666675
119.64337921	2.94117641
119.64337921	1.76470590
119.64738464	1.29411769
119.65148926	1.98039210
119.65563202	2.86274505
119.65563202	3.35294127
119.65975189	3.45098042
119.66383362	2.52941179
119.66796112	1.50980389
119.66796112	1.49019611
119.67211151	2.33333325
119.67620850	3.39215684
119.68023682	3.21568632
119.68433380	2.29411769
119.68843079	1.47058821
119.68843079	1.72549021
119.69252777	2.76470590
119.69649506	3.39215684
119.70062256	3.68627453
119.70062256	2.88235283
119.70478821	1.92156863
119.70892334	1.54901958
119.71302032	2.17647052
119.71302032	3.03921580
119.71712494	3.72549009
119.72113037	3.60784316
119.72524261	1.56862748
119.72941589	1.45098042
119.73342133	2.50980401
119.73342133	3.50980401
119.73755646	3.68627453
119.74165344	3.01960778
119.74576569	2.03921580
119.74576569	1.45098042
119.74976349	2.03921580
119.75389862	2.86274505
119.75818634	3.56862736
119.75818634	3.62745094
119.76216125	3.05882359
119.76628113	1.86274505
119.77027893	2.29411769
119.77443695	2.96078420
119.77856445	3.68627453
119.77856445	3.39215684
119.78267670	1.98039210
119.78665161	1.29411769
119.79083252	1.62745094
119.79083252	2.47058821
119.79490662	3.21568632
119.79901886	3.37254906
119.80313873	2.72549009
119.80313873	1.64705884
119.80718231	1.09803927
119.81130981	1.49019611
119.81541443	3.09803915
119.81960297	3.07843137
119.82357025	2.17647052
119.82357025	1.00000000
119.82775879	0.82352942
119.83187866	1.50980389
119.83601379	2.11764717
119.83601379	2.70588231
119.84001160	2.56862736
119.84424591	1.54901958
119.84824371	0.80392158
119.84824371	0.98039216
119.85237885	1.86274505
119.85648346	2.84313726
119.86051178	2.92156863
119.86451721	1.82352936
119.86863708	1.33333337
119.86863708	1.72549021
119.87281036	2.74509811
119.87676239	3.23529410
119.88097382	3.39215684
119.88097382	2.64705873
119.88503265	1.70588231
119.88921356	1.49019611
119.89334106	2.15686274
119.89334106	3.05882359
119.89727783	3.62745094
119.90139008	3.29411769
119.90554810	1.21568632
119.90959930	1.31372547
119.91365814	2.27450991
119.91365814	2.80392146
119.91777802	3.03921580
119.92189789	2.15686274
119.92597961	0.74509805
119.92597961	0.00000000
119.93017578	0.05882353
119.93413544	0.27450982
119.93824768	0.33333334
119.93824768	0.31372550
119.94247437	0.00000000
119.94657898	0.25490198
119.95058441	3.41176462
119.95465088	4.98039198
119.95882416	4.98039198
119.95882416	4.92156839
119.96290588	3.74509811
119.96690369	2.58823538
119.97109222	2.64705873
119.97109222	3.27450991
119.97515869	3.70588231
119.97924805	3.80392146
119.98338318	2.98039222
119.98338318	1.84313726
119.98738098	1.15686274
119.99151611	1.86274505
119.99563599	3.43137264
119.99974060	3.37254906
120.00382233	2.31372547
120.00382233	1.33333337
120.00794220	1.27450979
120.01207733	2.15686274
120.01618195	2.98039222
120.01618195	3.52941179
120.02020264	3.13725495
120.02433777	1.98039210
120.02838135	1.17647064
120.02838135	1.35294116
120.03251648	2.39215684
120.03664398	3.17647052
120.04066467	2.72549009
120.04479980	1.68627453
120.04886627	1.05882359
120.04886627	1.86274505
120.05302429	2.98039222
120.05714417	3.01960778
120.06117249	3.03921580
120.06117249	2.31372547
120.06526184	1.39215684
120.06935120	1.23529410
120.07358551	2.21568632
120.07358551	3.19607854
120.07756042	3.49019599
120.08168793	2.66666675
120.08585358	1.11764705
120.08984375	1.60784316
120.09398651	2.56862736
120.09398651	3.07843137
120.09800720	3.17647052
120.10212708	2.49019599
120.10633087	1.52941179
120.10633087	1.13725495
120.11032867	1.43137252
120.11445618	2.43137264
120.11859131	2.98039222
120.11859131	3.00000000
120.12274933	2.15686274
120.12674713	1.23529410
120.13074493	1.64705884
120.13487244	2.31372547
120.13902283	2.92156863
120.13902283	2.52941179
120.14316559	1.41176474
120.14716339	0.70588237
120.15131378	0.90196079
120.15131378	1.78431368
120.15547180	2.58823538
120.15960693	2.74509811
120.16367340	1.88235295
120.16367340	0.47058824
120.16764832	0.19607843
120.17178345	0.90196079
120.17593384	2.45098042
120.17990112	2.13725495
120.18416595	1.19607842
120.18416595	0.33333334
120.18812561	0.19607843
120.19231415	1.17647064
120.19640350	2.15686274
120.19640350	2.50980401
120.20037079	2.01960778
120.20463562	1.00000000
120.20870209	0.37254903
120.20870209	1.11764705
120.21283722	2.17647052
120.21681976	3.07843137
120.22099304	2.52941179
120.22509003	1.66666663
120.22924805	1.39215684
120.22924805	2.29411769
120.23324585	3.25490189
120.23735046	3.90196085
120.24147034	3.78431368
120.24147034	2.84313726
120.24561310	1.98039210
120.24970245	2.01960778
120.25363159	3.15686274
120.25363159	4.03921556
120.25783539	4.27450991
120.26190186	3.60784316
120.26602173	2.00000000
120.27014923	2.45098042
120.27413940	3.15686274
120.27413940	4.00000000
120.27825165	4.11764717
120.28240967	3.25490189
120.28651428	2.23529410
120.28651428	1.80392158
120.29058838	2.76470590
120.29464722	3.56862736
120.29878235	4.11764717
120.29878235	3.82352948
120.30287933	2.80392146
120.30701447	1.96078432
120.31117249	2.01960778
120.31117249	2.98039222
120.31517029	3.74509811
120.31928253	4.01960802
120.31928253	3.47058821
120.32329559	2.29411769
120.32740021	1.78431368
120.33148193	2.25490189
120.33148193	3.15686274
120.33566284	3.92156863
120.33985138	4.00000000
120.34381104	3.21568632
120.34381104	1.94117641
120.34790802	1.56862748
120.35202026	2.58823538
120.35617065	3.50980401
120.35617065	4.15686274
120.36019135	3.72549009
120.36430359	2.56862736
120.36430359	1.66666663
120.36844635	1.82352936
120.37252808	2.80392146
120.37662506	3.39215684
120.37662506	3.68627453
120.38061523	3.11764717
120.38471222	1.98039210
120.38896179	1.50980389
120.38896179	2.11764717
120.39307404	3.03921580
120.39719391	3.64705873
120.40119934	2.86274505
120.40533447	1.64705884
120.40942383	1.39215684
120.40942383	2.29411769
120.41337585	3.21568632
120.41748810	3.74509811
120.42168427	3.52941179
120.42168427	2.35294127
120.42576599	1.58823526
120.42990112	1.76470590
120.43387604	2.58823538
120.43387604	3.45098042
120.43806458	3.92156863
120.44216919	3.29411769
120.44624329	2.23529410
120.44624329	1.35294116
120.45030212	1.92156863
120.45438385	2.98039222
120.45438385	3.78431368
120.45856476	3.98039222
120.46271515	3.05882359
120.46684265	1.70588231
120.46684265	1.33333337
120.47085571	2.35294127
120.47496796	3.39215684
120.47904205	3.90196085
120.47904205	3.66666675
120.48314667	2.39215684
120.48711395	1.64705884
120.49124908	1.82352936
120.49124908	2.76470590
120.49541473	3.31372547
120.49958038	3.68627453
120.49958038	3.17647052
120.50357819	2.13725495
120.50772095	1.54901958
120.51184082	2.23529410
120.51184082	3.15686274
120.51597595	3.70588231
120.51995087	3.50980401
120.52421570	2.84313726
120.52421570	1.84313726
120.52820587	1.60784316
120.53231049	2.58823538
120.53637695	3.41176462
120.53637695	3.58823538
120.54042053	3.56862736
120.54455566	2.39215684
120.54455566	1.62745094
120.54869843	2.01960778
120.55283356	2.98039222
120.55695343	3.78431368
120.55695343	3.98039222
120.56088257	3.19607854
120.56503296	2.00000000
120.56920624	1.58823526
120.56920624	2.27450991
120.57335663	3.13725495
120.57730865	3.68627453
120.58142090	3.54901958
120.58142090	2.64705873
120.58559418	1.72549021
120.58971405	1.60784316
120.58971405	2.37254906
120.59362793	3.17647052
120.59776306	3.47058821
120.60186768	3.11764717
120.60186768	2.03921580
120.60601044	1.27450979
120.61013031	1.50980389
120.61412048	2.39215684
120.61412048	3.15686274
120.61824799	3.43137264
120.62241364	2.78431368
120.62649536	1.66666663
120.62649536	1.19607842
120.63051605	2.05882359
120.63461304	3.33333325
120.63461304	4.13725471
120.63882446	4.13725471
120.64295959	2.98039222
120.64708710	2.05882359
120.64708710	2.01960778
120.65122223	3.05882359
120.65518188	3.88235283
120.65933990	4.39215708
120.65933990	3.82352948
120.66326904	2.62745094
120.66738129	1.82352936
120.67158508	2.31372547
120.67158508	3.41176462
120.67564392	4.17647076
120.67984772	4.33333349
120.67984772	3.49019599
120.68386078	2.35294127
120.68800354	1.76470590
120.69223785	2.58823538
120.69223785	3.37254906
120.69622040	3.58823538
120.70032501	2.90196085
120.70430756	1.43137252
120.70430756	0.00000000
120.70839691	0.03921569
120.71250153	0.60784316
120.71662140	1.09803927
120.71662140	1.84313726
120.72065735	2.49019599
120.72483063	2.72549009
120.72483063	3.27450991
120.72895813	4.43137264
120.73311615	4.98039198
120.73722076	4.98039198
120.73722076	4.98039198
120.74123383	4.25490189
120.74536133	3.07843137
120.74946594	2.49019599
120.74946594	3.05882359
120.75356293	3.86274505
120.75764465	3.96078420
120.76165771	3.72549009
120.76165771	2.62745094
120.76578522	1.52941179
120.76987457	1.52941179
120.76987457	2.52941179
120.77382660	3.35294127
120.77812958	3.74509811
120.78211975	2.94117641
120.78211975	1.90196073
120.78631592	1.35294116
120.79032135	1.76470590
120.79439545	2.82352948
120.79439545	3.56862736
120.79850006	3.58823538
120.80260468	2.60784316
120.80689240	1.52941179
120.80689240	1.21568632
120.81072235	2.19607854
120.81491089	3.09803915
120.81491089	3.56862736
120.81900787	3.27450991
120.82311249	1.98039210
120.82726288	1.21568632
120.82726288	1.31372547
120.83124542	2.43137264
120.83541107	3.17647052
120.83956909	3.50980401
120.83956909	2.76470590
120.84370422	1.64705884
120.84764862	0.72549021
120.85177612	1.37254906
120.85177612	2.33333325
120.85591125	3.13725495
120.85999298	3.23529410
120.85999298	2.25490189
120.86414337	1.17647064
120.86815643	0.80392158
120.87229156	1.74509799
120.87229156	2.56862736
120.87638092	3.07843137
120.88037109	2.72549009
120.88448334	1.68627453
120.88448334	1.00000000
120.88869476	0.78431374
120.89283752	1.82352936
120.89696503	2.68627453
120.89696503	2.94117641
120.90093231	2.37254906
120.90518951	1.00000000
120.90518951	0.49019608
120.90924072	1.05882359
120.91334534	2.13725495
120.91748047	2.86274505
120.91748047	2.58823538
120.92148590	1.54901958
120.92562103	0.49019608
120.92971039	0.27450982
120.92971039	1.03921568
120.93365479	2.09803915
120.93779755	2.43137264
120.94196320	2.07843137
120.94196320	1.11764705
120.94600677	0.13725491
120.95014191	0.35294119
120.95014191	1.17647064
120.95413971	2.01960778
120.95827484	2.23529410
120.96241760	1.52941179
120.96241760	0.52941179
120.96655273	0.15686275
120.97046661	0.70588237
120.97463989	1.80392158
120.97463989	2.56862736
120.97873688	2.66666675
120.98290253	1.84313726
120.98701477	0.82352942
120.98701477	0.84313726
120.99113464	2.05882359
120.99519348	3.07843137
120.99519348	3.56862736
120.99929047	3.50980401
121.00341797	2.39215684
121.00753784	1.58823526
121.00753784	1.84313726
121.01145935	3.07843137
121.01562500	4.07843161
121.01971436	4.45098019
121.01971436	3.74509811
121.02381897	2.45098042
121.02788544	1.76470590
121.03211975	2.70588231
121.03211975	3.52941179
121.03610229	4.27450991
121.04035187	4.17647076
121.04035187	3.25490189
121.04421234	2.41176462
121.04839325	2.19607854
121.05251312	3.07843137
121.05251312	3.66666675
121.05664825	4.01960802
121.06061554	3.74509811
121.06478119	2.72549009
121.06478119	2.09803915
121.06886292	2.39215684
121.07307434	3.33333325
121.07718658	3.72549009
121.07718658	4.07843161
121.08118439	3.37254906
121.08532715	2.05882359
121.08532715	1.45098042
121.08945465	2.21568632
121.09362030	3.29411769
121.09773254	4.01960802
121.09773254	4.15686274
121.10172272	3.03921580
121.10581970	1.66666663
121.10993958	1.41176474
121.10993958	2.54901958
121.11396027	3.64705873
121.11819458	4.05882359
121.12224579	3.52941179
121.12224579	2.05882359
121.12633514	1.39215684
121.13040161	1.90196073
121.13040161	2.84313726
121.13437653	3.68627453
121.13854980	3.74509811
121.14264679	2.66666675
121.14264679	1.68627453
121.14677429	1.21568632
121.15077972	2.17647052
121.15486145	3.15686274
121.15486145	3.68627453
121.15904236	3.49019599
121.16316223	2.25490189
121.16726685	1.35294116
121.16726685	1.45098042
121.17124939	2.47058821
121.17539215	3.43137264
121.17539215	3.82352948
121.17952728	3.27450991
121.18363953	2.07843137
121.18765259	1.21568632
121.18765259	1.54901958
121.19175720	2.66666675
121.19586945	3.45098042
121.19998932	3.45098042
121.19998932	2.84313726
121.20411682	1.74509799
121.20819855	1.45098042
121.21233368	1.92156863
121.21233368	2.88235283
121.21646881	3.54901958
121.22058868	3.56862736
121.22058868	2.56862736
121.22456360	1.62745094
121.22869873	1.41176474
121.23277283	2.35294127
121.23277283	3.11764717
121.23686981	3.58823538
121.24092102	3.15686274
121.24511719	2.00000000
121.24511719	1.29411769
121.24922180	1.45098042
121.25336456	2.41176462
121.25751495	3.27450991
121.25751495	3.37254906
121.26148224	2.52941179
121.26558685	1.45098042
121.26558685	0.92156863
121.26969147	1.52941179
121.27383423	2.39215684
121.27777863	3.00000000
121.27777863	2.76470590
121.28189850	1.84313726
121.28598785	0.92156863
121.29028320	0.70588237
121.29028320	1.72549021
121.29411316	2.43137264
121.29824829	2.94117641
121.30236053	2.54901958
121.30236053	1.49019611
121.30650330	0.80392158
121.31063843	1.43137252
121.31063843	2.50980401
121.31461334	3.45098042
121.31873322	3.64705873
121.32285309	2.96078420
121.32285309	1.88235295
121.32704926	1.62745094
121.33110046	2.50980401
121.33511353	3.43137264
121.33511353	3.96078420
121.33934021	3.56862736
121.34346008	2.54901958
121.34751892	1.70588231
121.34751892	1.88235295
121.35155487	2.84313726
121.35568237	3.50980401
121.35568237	3.78431368
121.35980988	3.31372547
121.36399078	2.27450991
121.36798859	1.52941179
121.36798859	2.00000000
121.37210846	2.76470590
121.37620544	3.43137264
121.38035583	3.47058821
121.38035583	2.41176462
121.38431549	0.86274511
121.38844299	0.25490198
121.39259338	0.45098040
121.39259338	0.56862748
121.39661407	0.72549021
121.40074158	0.80392158
121.40074158	0.35294119
121.40476990	0.29411766
121.40887451	1.90196073
121.41298676	4.01960802
121.41298676	4.98039198
121.41711426	4.98039198
121.42115021	4.82352924
121.42531586	3.94117641
121.42531586	3.11764717
121.42945862	3.27450991
121.43351746	3.90196085
121.43762970	4.25490189
121.43762970	4.13725471
121.44167328	3.03921580
121.44575500	1.80392158
121.44575500	1.39215684
121.44984436	2.00000000
121.45398712	2.82352948
121.45813751	3.37254906
121.45813751	3.09803915
121.46210480	2.01960778
121.46623230	1.15686274
121.47035980	1.43137252
121.47035980	2.37254906
121.47441864	3.05882359
121.47852325	3.27450991
121.48266602	2.60784316
121.48266602	1.62745094
121.48683929	0.86274511
121.49096680	1.64705884
121.49096680	2.66666675
121.49488831	3.25490189
121.49900055	3.23529410
121.50313568	2.23529410
121.50313568	1.25490201
121.50728607	1.00000000
121.51127625	2.09803915
121.51539612	2.80392146
121.51539612	3.11764717
121.51948547	2.58823538
121.52359772	1.56862748
121.52779388	0.82352942
121.52779388	0.94117647
121.53170013	2.19607854
121.53585052	2.96078420
121.53585052	3.03921580
121.54003143	2.29411769
121.54418182	1.09803927
121.54811096	0.49019608
121.54811096	1.37254906
121.55223846	2.21568632
121.55636597	2.72549009
121.56049347	2.74509811
121.56049347	1.74509799
121.56454468	0.80392158
121.56858826	0.43137255
121.57276154	1.19607842
121.57276154	2.21568632
121.57685852	2.88235283
121.58099365	2.33333325
121.58099365	1.07843137
121.58512878	0.01960784
121.58915710	0.31372550
121.59330750	1.45098042
121.59330750	2.49019599
121.59743500	2.64705873
121.60142517	1.70588231
121.60556030	0.58823532
121.60556030	0.09803922
121.60961151	0.66666669
121.61374664	1.62745094
121.61788177	1.96078432
121.61788177	1.82352936
121.62187195	0.92156863
121.62602234	0.00000000
121.62602234	0.19607843
121.63013458	0.98039216
121.63415527	1.64705884
121.63830566	1.92156863
121.63830566	1.35294116
121.64233398	0.31372550
121.64647675	0.01960784
121.65057373	0.45098040
121.65057373	1.33333337
121.65473175	1.92156863
121.65882111	2.07843137
121.66291809	1.35294116
121.66291809	0.33333334
121.66707611	0.33333334
121.67115021	1.35294116
121.67115021	2.25490189
121.67518616	2.72549009
121.67926025	2.62745094
121.68337250	1.96078432
121.68337250	1.29411769
121.68737793	1.66666663
121.69149017	2.76470590
121.69576263	3.52941179
121.69576263	4.01960802
121.69985199	3.47058821
121.70397949	2.50980401
121.70809174	1.78431368
121.70809174	2.21568632
121.71218109	3.35294127
121.71623993	4.07843161
121.71623993	4.15686274
121.72031403	3.39215684
121.72432709	2.37254906
121.72848511	1.84313726
121.72848511	2.68627453
121.73260498	3.72549009
121.73670197	4.29411745
121.74082947	3.98039222
121.74082947	2.78431368
121.74480438	1.94117641
121.74897766	2.05882359
121.75312805	2.96078420
121.75312805	3.84313726
121.75724792	4.15686274
121.76136780	3.58823538
121.76136780	2.35294127
121.76537323	1.62745094
121.76950836	2.00000000
121.77363586	3.13725495
121.77363586	3.76470590
121.77762604	3.78431368
121.78172302	2.92156863
121.78587341	1.80392158
121.78587341	1.47058821
121.79000854	2.15686274
121.79413605	3.09803915
121.79824066	3.62745094
121.79824066	3.47058821
121.80223083	2.43137264
121.80633545	1.50980389
121.80633545	1.50980389
121.81044769	2.60784316
121.81445313	3.35294127
121.81855774	3.64705873
121.81855774	2.98039222
121.82273102	1.98039210
121.82684326	1.33333337
121.83089447	1.78431368
121.83089447	3.05882359
121.83493805	3.68627453
121.83921814	3.78431368
121.84323120	2.76470590
121.84323120	1.49019611
121.84732819	1.03921568
121.85135651	2.03921580
121.85135651	3.19607854
121.85540771	3.80392146
121.85948944	3.47058821
121.86361694	2.15686274
121.86361694	1.21568632
121.86764526	1.35294116
121.87174225	2.37254906
121.87586212	3.37254906
121.87586212	3.88235283
121.88001251	3.07843137
121.88410950	1.96078432
121.88829803	1.15686274
121.88829803	1.60784316
121.89221954	2.78431368
121.89633942	3.82352948
121.89633942	4.09803915
121.90050507	2.96078420
121.90445709	1.82352936
121.90866089	1.45098042
121.90866089	2.39215684
121.91278839	3.52941179
121.91683197	3.94117641
121.92096710	3.56862736
121.92096710	2.35294127
121.92516327	1.43137252
121.92915344	1.41176474
121.93328857	2.35294127
121.93328857	3.45098042
121.93740082	3.94117641
121.94150543	3.39215684
121.94150543	2.11764717
121.94559479	1.45098042
121.94972229	2.07843137
121.95381927	3.11764717
121.95381927	3.84313726
121.95781708	4.07843161
121.96197510	2.94117641
121.96611786	1.86274505
121.96611786	1.60784316
121.97012329	2.50980401
121.97425842	3.52941179
121.97823334	3.92156863
121.97823334	3.56862736
121.98239136	2.39215684
121.98649597	1.50980389
121.98649597	1.54901958
121.99060822	2.41176462
121.99466705	3.29411769
121.99874878	3.84313726
121.99874878	2.94117641
122.00283813	1.56862748
122.00700378	1.15686274
122.01113129	1.70588231
122.01113129	2.56862736
122.01509857	3.27450991
122.01927948	3.52941179
122.02336884	2.43137264
122.02336884	1.37254906
122.02748108	1.29411769
122.03147888	2.09803915
122.03147888	3.11764717
122.03565216	3.88235283
122.03980255	3.58823538
122.04394531	2.60784316
122.04394531	1.70588231
122.04800415	1.92156863
122.05222321	2.82352948
122.05625916	3.78431368
122.05625916	4.23529434
122.06034851	3.60784316
122.06446838	2.29411769
122.06848145	1.58823526
122.06848145	2.39215684
122.07258606	3.49019599
122.07668304	4.03921556
122.07668304	3.80392146
122.08084106	2.68627453
122.08477783	1.74509799
122.08892822	1.76470590
122.08892822	2.64705873
122.09300232	3.35294127
122.09710693	3.62745094
122.10128784	2.86274505
122.10128784	1.25490201
122.10523987	0.09803922
122.10945129	0.05882353
122.11350250	0.35294119
122.11350250	0.58823532
122.11766052	0.90196079
122.12166595	0.98039216
122.12166595	1.15686274
122.12578583	2.01960778
122.12987518	3.76470590
122.13399506	4.98039198
122.13399506	4.98039198
122.13809204	4.98039198
122.14215851	4.41176462
122.14627838	3.45098042
122.14627838	3.00000000
122.15035248	3.47058821
122.15434265	3.96078420
122.15847015	4.25490189
122.15847015	3.78431368
122.16262054	2.56862736
122.16680145	1.80392158
122.16680145	1.84313726
122.17102814	2.72549009
122.17490387	3.37254906
122.17919159	3.62745094
122.17919159	2.98039222
122.18313599	1.96078432
122.18724823	1.33333337
122.19138336	1.94117641
122.19138336	2.80392146
122.19541931	3.62745094
122.19948578	3.62745094
122.20362091	2.54901958
122.20362091	1.54901958
122.20771790	1.29411769
122.21176147	2.01960778
122.21176147	2.90196085
122.21585083	3.49019599
122.22005463	3.13725495
122.22420502	1.92156863
122.22420502	1.09803927
122.22817993	1.43137252
122.23229218	2.43137264
122.23648071	3.21568632
122.23648071	3.37254906
122.24062347	2.62745094
122.24472046	1.60784316
122.24871826	1.09803927
122.24871826	1.70588231
122.25283813	2.60784316
122.25694275	3.31372547
122.25694275	3.11764717
122.26103210	2.03921580
122.26515961	1.09803927
122.26908875	1.07843137
122.26908875	2.00000000
122.27330017	2.88235283
122.27739716	3.21568632
122.28147125	2.64705873
122.28147125	1.54901958
122.28549957	0.74509805
122.28964233	1.09803927
122.29371643	2.09803915
122.29371643	2.92156863
122.29787445	3.39215684
122.30187225	2.17647052
122.30187225	1.01960790
122.30599976	0.66666669
122.31011200	1.50980389
122.31427002	2.21568632
122.31427002	2.74509811
122.31821442	2.66666675
122.32242584	1.52941179
122.32650757	0.39215687
122.32650757	0.66666669
122.33062744	1.45098042
122.33465576	2.19607854
122.33871460	2.50980401
122.33871460	2.19607854
122.34291840	1.01960790
122.34706879	0.17647059
122.34706879	0.58823532
122.35118866	1.47058821
122.35516357	2.17647052
122.35929871	2.33333325
122.35929871	1.56862748
122.36345673	0.50980395
122.36758423	0.25490198
122.37163544	1.05882359
122.37163544	2.09803915
122.37563324	2.50980401
122.37989807	2.35294127
122.38387299	1.43137252
122.38387299	0.70588237
122.38806152	0.88235295
122.39212036	2.07843137
122.39212036	3.03921580
122.39613342	3.41176462
122.40019226	3.17647052
122.40431213	2.11764717
122.40431213	1.76470590
122.40843201	2.31372547
122.41256714	2.72549009
122.41667938	3.70588231
122.41667938	4.03921556
122.42081451	3.37254906
122.42479706	2.47058821
122.42892456	2.09803915
122.42892456	3.00000000
122.43308258	4.09803915
122.43714905	4.21568632
122.43714905	4.00000000
122.44123840	2.86274505
122.44519043	2.07843137
122.44937134	2.23529410
122.44937134	3.27450991
122.45346832	3.90196085
122.45763397	4.11764717
122.46172333	3.50980401
122.46172333	2.58823538
122.46572876	2.05882359
122.46983337	2.60784316
122.47396088	3.47058821
122.47396088	3.96078420
122.47816467	3.90196085
122.48218536	3.00000000
122.48218536	2.13725495
122.48629761	1.84313726
122.49040985	2.80392146
122.49456787	3.47058821
122.49456787	3.98039222
122.49847412	3.68627453
122.50263214	2.68627453
122.50674438	1.92156863
122.50674438	2.13725495
122.51088715	3.07843137
122.51495361	3.47058821
122.51922607	3.74509811
122.51922607	3.07843137
122.52321625	2.31372547
122.52734375	1.15686274
122.52734375	1.80392158
122.53144073	3.15686274
122.53534698	3.72549009
122.53955841	3.56862736
122.53955841	2.84313726
122.54368591	1.90196073
122.54780579	1.39215684
122.55189514	2.37254906
122.55189514	3.41176462
122.55593872	3.90196085
122.56004333	3.43137264
122.56420135	2.17647052
122.56420135	1.49019611
122.56822968	1.90196073
122.57234955	2.92156863
122.57234955	3.56862736
122.57646942	3.62745094
122.58066559	2.62745094
122.58480072	1.70588231
122.58480072	1.37254906
122.58881378	1.92156863
122.59284210	2.84313726
122.59691620	3.45098042
122.59691620	3.64705873
122.60097504	2.64705873
122.60515594	1.78431368
122.60910034	1.54901958
122.60910034	2.37254906
122.61321259	3.17647052
122.61735535	3.72549009
122.61735535	3.23529410
122.62133026	2.13725495
122.62551880	1.41176474
122.62969208	1.64705884
122.62969208	2.66666675
122.63373566	3.31372547
122.63788605	3.58823538
122.64202118	2.94117641
122.64202118	1.92156863
122.64610291	1.31372547
122.65013123	1.94117641
122.65436554	2.80392146
122.65436554	3.56862736
122.65825653	3.35294127
122.66236877	2.33333325
122.66236877	1.23529410
122.66643524	1.05882359
122.67061615	1.92156863
122.67474365	3.03921580
122.67474365	3.15686274
122.67872620	2.82352948
122.68289185	1.60784316
122.68705750	0.74509805
122.68705750	1.17647064
122.69120789	2.19607854
122.69515228	2.98039222
122.69924164	3.11764717
122.69924164	2.35294127
122.70335388	1.37254906
122.70748138	1.31372547
122.70748138	2.23529410
122.71143341	3.45098042
122.71566772	3.66666675
122.71980286	3.21568632
122.71980286	2.43137264
122.72386932	1.88235295
122.72803497	1.98039210
122.73221588	2.90196085
122.73221588	3.72549009
122.73616028	3.98039222
122.74028015	3.37254906
122.74435425	2.41176462
122.74435425	1.50980389
122.74843597	2.21568632
122.75254059	3.21568632
122.75254059	3.78431368
122.75698090	4.01960802
122.76078033	3.13725495
122.76486969	2.13725495
122.76486969	1.52941179
122.76894379	2.13725495
122.77322388	2.82352948
122.77720642	2.92156863
122.77720642	2.19607854
122.78133392	0.64705884
122.78531647	0.00000000
122.78944397	0.00000000
122.78944397	0.23529412
122.79359436	1.03921568
122.79772186	1.82352936
122.79772186	2.64705873
122.80170441	2.90196085
122.80582428	3.11764717
122.80995178	4.00000000
122.80995178	4.98039198
122.81410217	4.98039198
122.81821442	4.98039198
122.82222748	4.39215708
122.82222748	2.92156863
122.82633972	2.27450991
122.83047485	2.76470590
122.83448792	3.47058821
122.83448792	4.03921556
122.83850098	3.78431368
122.84265137	2.49019599
122.84265137	1.29411769
122.84678650	1.29411769
122.85085297	2.47058821
122.85501099	3.54901958
122.85501099	3.96078420
122.85910797	3.23529410
122.86314392	1.80392158
122.86730957	1.00000000
122.86730957	1.68627453
122.87137604	2.98039222
122.87541962	3.72549009
122.87954712	3.54901958
122.87954712	2.50980401
122.88361359	1.47058821
122.88772583	1.13725495
122.88772583	2.13725495
122.89178467	3.01960778
122.89588928	3.58823538
122.90019226	3.00000000
122.90019226	2.05882359
122.90421295	1.13725495
122.90837860	1.37254906
122.91233826	2.41176462
122.91233826	3.17647052
122.91643524	3.35294127
122.92046356	2.84313726
122.92465973	1.72549021
122.92465973	1.11764705
122.92859650	1.54901958
122.93280029	2.41176462
122.93280029	3.00000000
122.93685913	3.19607854
122.94104767	2.33333325
122.94508362	1.41176474
122.94508362	1.01960790
122.94904327	1.82352936
122.95324707	2.54901958
122.95741272	3.09803915
122.95741272	2.82352948
122.96144867	2.05882359
122.96541595	1.15686274
122.96961212	1.23529410
122.96961212	1.74509799
122.97371674	2.50980401
122.97789001	3.01960778
122.97789001	2.31372547
122.98191833	1.37254906
122.98618317	0.72549021
122.99018860	1.15686274
122.99018860	2.01960778
122.99433136	2.50980401
122.99825287	2.25490189
123.00238037	1.45098042
123.00238037	0.50980395
123.00652313	0.25490198
123.01057434	1.13725495
123.01483917	2.09803915
123.01483917	2.31372547
123.01877594	2.00000000
123.02294159	0.92156863
123.02709198	0.39215687
123.03119659	1.64705884
123.03527832	2.41176462
123.03527832	2.50980401
123.03926849	1.54901958
123.04336548	0.52941179
123.04756927	0.13725491
123.04756927	0.96078432
123.05171967	2.15686274
123.05567932	2.66666675
123.05977631	2.62745094
123.05977631	1.82352936
123.06396484	0.94117647
123.06807709	1.07843137
123.07221985	3.00000000
123.07619476	3.47058821
123.08029175	3.31372547
123.08029175	2.50980401
123.08446503	1.76470590
123.08840942	1.88235295
123.09250641	3.05882359
123.09250641	3.74509811
123.09663391	4.15686274
123.10080719	3.68627453
123.10496521	2.31372547
123.10496521	1.70588231
123.10887146	2.41176462
123.11318207	3.56862736
123.11716461	4.56862736
123.12126923	3.45098042
123.12539673	2.05882359
123.12539673	1.64705884
123.12934875	2.94117641
123.13355255	3.96078420
123.13777924	4.52941179
123.13777924	4.05882359
123.14180756	2.82352948
123.14572144	1.70588231
123.14992523	1.92156863
123.14992523	3.07843137
123.15405273	4.07843161
123.15822601	4.43137264
123.16219330	2.03921580
123.16629028	1.43137252
123.17044067	2.41176462
123.17044067	3.31372547
123.17461395	4.01960802
123.17861176	3.96078420
123.18270874	2.86274505
123.18270874	1.86274505
123.18685150	1.66666663
123.19098663	2.74509811
123.19511414	3.54901958
123.19511414	3.86274505
123.19921875	3.19607854
123.20321655	2.11764717
123.20735168	1.72549021
123.21145630	2.35294127
123.21558380	3.33333325
123.21558380	3.84313726
123.21955872	3.07843137
123.22364807	1.82352936
123.22787476	1.35294116
123.22787476	2.01960778
123.23183441	3.09803915
123.23596954	3.74509811
123.24031067	3.80392146
123.24031067	2.50980401
123.24420929	1.33333337
123.24832153	1.21568632
123.25224304	3.03921580
123.25639343	3.58823538
123.26055908	3.19607854
123.26055908	1.90196073
123.26466370	1.23529410
123.26873016	1.66666663
123.27285767	2.78431368
123.27285767	3.56862736
123.27696991	3.52941179
123.28109741	2.68627453
123.28524017	1.70588231
123.28524017	1.37254906
123.28922272	2.15686274
123.29335785	3.19607854
123.29748535	3.35294127
123.30161285	2.47058821
123.30571747	1.49019611
123.30571747	1.54901958
123.30973816	2.58823538
123.31385040	3.52941179
123.31797028	3.72549009
123.31797028	3.05882359
123.32196808	1.84313726
123.32622528	1.27450979
123.33020782	1.78431368
123.33020782	2.82352948
123.33433533	3.33333325
123.33844757	3.37254906
123.34243011	1.37254906
123.34655762	1.07843137
123.35068512	1.74509799
123.35068512	2.64705873
123.35479736	2.92156863
123.35879517	2.74509811
123.36293793	1.78431368
123.36293793	0.90196079
123.36708832	1.11764705
123.37117767	2.19607854
123.37532043	3.00000000
123.37532043	3.41176462
123.37929535	3.15686274
123.38334656	2.07843137
123.38748169	2.21568632
123.39161682	2.98039222
123.39575195	3.78431368
123.39575195	4.07843161
123.39980316	3.35294127
123.40390778	2.13725495
123.40807343	1.78431368
123.40807343	2.70588231
123.41218567	3.52941179
123.41616058	4.13725471
123.42028046	4.01960802
123.42028046	2.82352948
123.42443848	1.94117641
123.42855835	1.90196073
123.43254852	3.62745094
123.43671417	4.09803915
123.44082642	3.41176462
123.44082642	2.01960778
123.44495392	0.88235295
123.44893646	1.00000000
123.45320892	1.56862748
123.45320892	1.66666663
123.45716095	1.11764705
123.46125031	0.00000000
123.46547699	0.00000000
123.46547699	0.19607843
123.46937561	1.82352936
123.47351837	3.98039222
123.47759247	4.98039198
123.48175049	4.13725471
123.48583984	3.47058821
123.48583984	3.60784316
123.48988342	4.47058821
123.49404907	4.98039198
123.49808502	4.98039198
123.49808502	4.01960802
123.50209808	2.49019599
123.50621796	1.80392158
123.51033783	2.41176462
123.51033783	3.15686274
123.51447296	3.84313726
123.51859283	3.70588231
123.52268982	1.52941179
123.52671051	1.05882359
123.53083801	2.09803915
123.53083801	3.23529410
123.53495789	3.62745094
123.53915405	3.09803915
123.54313660	2.00000000
123.54313660	1.35294116
123.54729462	1.62745094
123.55139160	2.33333325
123.55554199	2.96078420
123.55554199	3.29411769
123.55951691	2.84313726
123.56365967	1.84313726
123.56771088	1.66666663
123.57189178	2.58823538
123.57583618	3.41176462
123.57583618	3.56862736
123.58007813	2.66666675
123.58409882	1.15686274
123.58823395	1.01960790
123.58823395	2.05882359
123.59223175	3.03921580
123.59634399	3.54901958
123.60050201	3.23529410
123.60050201	1.82352936
123.60459137	0.74509805
123.60870361	1.19607842
123.61277771	3.07843137
123.61692810	3.35294127
123.62113953	2.47058821
123.62113953	1.35294116
123.62518311	0.84313726
123.62915802	1.70588231
123.63327789	2.64705873
123.63327789	3.13725495
123.63734436	2.98039222
123.64150238	1.74509799
123.64559174	0.82352942
123.64559174	0.76470590
123.64958954	1.80392158
123.65374756	2.66666675
123.65787506	2.37254906
123.66195679	1.11764705
123.66608429	0.49019608
123.66608429	0.72549021
123.67009735	1.90196073
123.67427063	2.47058821
123.67840576	2.54901958
123.67840576	1.60784316
123.68242645	0.45098040
123.68652344	0.23529412
123.69068909	0.90196079
123.69068909	1.74509799
123.69480896	2.15686274
123.69895935	2.03921580
123.70295715	0.35294119
123.70713043	0.60784316
123.71121216	1.27450979
123.71121216	2.05882359
123.71533203	2.21568632
123.71931458	1.98039210
123.72338867	0.92156863
123.72338867	0.39215687
123.72750092	0.90196079
123.73167419	1.84313726
123.73583221	2.72549009
123.73583221	2.82352948
123.73973846	2.27450991
123.74382782	1.52941179
123.74795532	2.00000000
123.75213623	3.09803915
123.75621796	3.78431368
123.75621796	3.68627453
123.76027679	2.82352948
123.76442719	1.92156863
123.76856232	2.00000000
123.76856232	2.88235283
123.77255249	3.56862736
123.77666473	4.11764717
123.78080750	3.74509811
123.78080750	2.68627453
123.78491974	1.90196073
123.78901672	2.27450991
123.79311371	4.05882359
123.79710388	4.19607830
123.80122375	3.39215684
123.80122375	2.35294127
123.80535889	1.92156863
123.80934906	2.54901958
123.81348419	3.31372547
123.81348419	4.09803915
123.81768799	3.86274505
123.82178497	2.92156863
123.82582855	1.94117641
123.82582855	1.98039210
123.82990265	2.84313726
123.83412933	3.60784316
123.83814240	3.27450991
123.84220886	2.17647052
123.84623718	1.52941179
123.84623718	1.98039210
123.85033417	3.07843137
123.85449219	3.90196085
123.85869598	3.82352948
123.85869598	2.84313726
123.86265564	1.72549021
123.86679840	1.29411769
123.87090302	2.09803915
123.87090302	3.11764717
123.87503815	3.82352948
123.87918091	3.47058821
123.88323212	1.07843137
123.88732910	1.29411769
123.89146423	2.39215684
123.89146423	3.11764717
123.89554596	3.39215684
123.89958191	2.68627453
123.90366364	1.45098042
123.90366364	0.88235295
123.90773010	1.58823526
123.91194916	2.56862736
123.91600800	3.33333325
123.91600800	3.49019599
123.92013550	2.45098042
123.92411804	1.39215684
123.92822266	2.11764717
123.93238831	3.21568632
123.93635559	3.88235283
123.93635559	3.31372547
123.94050598	2.13725495
123.94466400	1.33333337
123.94880676	1.54901958
123.94880676	2.56862736
123.95278168	3.52941179
123.95694733	3.64705873
123.96105957	2.98039222
123.96105957	1.78431368
123.96517944	1.21568632
123.96935272	1.78431368
123.97332764	3.62745094
123.97748566	3.80392146
123.98161316	2.96078420
123.98161316	1.90196073
123.98573303	1.64705884
123.98970795	2.45098042
123.99382782	3.35294127
123.99382782	3.82352948
123.99797821	3.60784316
124.00209045	2.76470590
124.00629425	1.74509799
124.00629425	1.76470590
124.01020050	2.90196085
124.01432800	3.72549009
124.01844788	3.60784316
124.02239227	2.37254906
124.02658844	1.78431368
124.02658844	2.27450991
124.03073883	3.17647052
124.03483582	3.86274505
124.03892517	4.01960802
124.03892517	3.19607854
124.04296875	2.29411769
124.04720306	1.80392158
124.05120850	2.41176462
124.05120850	3.39215684
124.05536652	3.98039222
124.05943298	3.68627453
124.06346893	1.35294116
124.06758118	1.33333337
124.07164001	2.58823538
124.07164001	3.49019599
124.07570648	3.66666675
124.07971954	2.66666675
124.08386230	1.45098042
124.08386230	1.07843137
124.08793640	1.76470590
124.09217072	2.78431368
124.09629822	3.23529410
124.09629822	3.15686274
124.10033417	2.21568632
124.10453796	1.66666663
124.10862732	2.86274505
124.11260986	3.78431368
124.11671448	4.05882359
124.11671448	3.68627453
124.12083435	2.54901958
124.12497711	1.94117641
124.12911987	2.29411769
124.12911987	3.29411769
124.13323212	3.88235283
124.13720703	3.96078420
124.14132690	3.11764717
124.14132690	2.17647052
124.14546204	1.74509799
124.14954376	2.52941179
124.15357971	3.76470590
124.15763855	3.49019599
124.16173553	2.54901958
124.16173553	1.50980389
124.16584015	1.37254906
124.16996002	2.13725495
124.17419434	2.66666675
124.17419434	2.52941179
124.17814636	1.62745094
124.18231964	0.00000000
124.18634033	0.00000000
124.18634033	0.05882353
124.19037628	0.58823532
124.19452667	1.47058821
124.19856262	3.39215684
124.20252991	3.37254906
124.20679474	3.47058821
124.20679474	4.21568632
124.21092224	4.98039198
124.21504211	4.98039198
124.21916962	4.98039198
124.21916962	3.64705873
124.22314453	2.45098042
124.22729492	1.98039210
124.23139954	2.64705873
124.23139954	3.47058821
124.23554993	3.92156863
124.23960114	3.64705873
124.24372101	1.52941179
124.24783325	1.68627453
124.25196838	2.47058821
124.25196838	3.25490189
124.25596619	3.64705873
124.26023102	2.84313726
124.26420593	1.66666663
124.26420593	1.17647064
124.26836395	1.92156863
124.27252197	2.94117641
124.27658081	3.45098042
124.27658081	3.31372547
124.28057861	2.27450991
124.28469849	1.41176474
124.28880310	2.09803915
124.29277039	2.86274505
124.29704285	3.45098042
124.29704285	3.21568632
124.30108643	1.94117641
124.30639648	1.19607842
124.30932617	1.62745094
124.30932617	2.60784316
124.31333923	3.27450991
124.31745148	3.56862736
124.32151794	2.66666675
124.32151794	1.72549021
124.32564545	1.41176474
124.32960510	2.00000000
124.33378601	3.39215684
124.33789063	3.19607854
124.34199524	2.29411769
124.34199524	1.45098042
124.34615326	1.47058821
124.35017395	2.31372547
124.35427856	3.00000000
124.35427856	3.29411769
124.35845184	2.80392146
124.36255646	1.78431368
124.36654663	1.15686274
124.36654663	1.54901958
124.37072754	2.45098042
124.37483978	2.98039222
124.37898254	2.13725495
124.38297272	1.23529410
124.38722992	0.88235295
124.38722992	1.62745094
124.39121246	2.33333325
124.39535522	2.82352948
124.39948273	2.50980401
124.39948273	1.54901958
124.40342712	0.54901963
124.40758514	0.52941179
124.41167450	1.39215684
124.41167450	2.13725495
124.41578674	2.60784316
124.41980743	2.15686274
124.42382813	0.21568628
124.42798615	0.72549021
124.43209076	1.60784316
124.43209076	2.37254906
124.43611145	2.52941179
124.44020081	1.50980389
124.44430542	0.41176471
124.44430542	0.19607843
124.44845581	1.01960790
124.45265198	2.11764717
124.45660400	2.86274505
124.45660400	2.66666675
124.46070862	1.62745094
124.46482086	0.72549021
124.46896362	2.15686274
124.47307587	3.23529410
124.47708893	3.78431368
124.47708893	3.15686274
124.48120117	2.00000000
124.48534393	1.43137252
124.48950958	2.01960778
124.48950958	3.00000000
124.49342346	3.80392146
124.49758911	3.94117641
124.50177765	3.13725495
124.50177765	2.09803915
124.50591278	1.78431368
124.50989532	2.68627453
124.51416016	4.05882359
124.51820374	3.68627453
124.52230835	2.62745094
124.52230835	1.84313726
124.52631378	2.07843137
124.53040314	2.90196085
124.53454590	3.66666675
124.53454590	4.03921556
124.53858948	3.41176462
124.54273224	2.07843137
124.54672241	1.58823526
124.54672241	2.27450991
124.55084991	3.23529410
124.55497742	3.94117641
124.55909729	2.78431368
124.56309509	1.68627453
124.56722260	1.66666663
124.56722260	2.54901958
124.57131195	3.50980401
124.57550049	3.66666675
124.57965851	3.11764717
124.57965851	2.01960778
124.58366394	1.45098042
124.58774567	1.78431368
124.59188843	2.60784316
124.59188843	3.23529410
124.59594727	3.25490189
124.60012817	2.70588231
124.60407257	1.37254906
124.60825348	2.19607854
124.61232758	2.94117641
124.61232758	3.37254906
124.61631775	3.25490189
124.62048340	2.49019599
124.62463379	1.70588231
124.62463379	1.47058821
124.62872314	2.35294127
124.63292694	3.05882359
124.63690186	3.31372547
124.63690186	3.09803915
124.64109802	2.05882359
124.64508057	1.43137252
124.64920044	2.70588231
124.65321350	3.21568632
124.65740967	3.49019599
124.65740967	2.84313726
124.66146851	1.86274505
124.66558075	1.35294116
124.66969299	1.92156863
124.66969299	2.92156863
124.67372894	3.62745094
124.67782593	3.27450991
124.68199158	2.37254906
124.68199158	1.49019611
124.68617249	1.50980389
124.69017029	2.41176462
124.69429779	3.68627453
124.69840240	3.33333325
124.70246124	2.15686274
124.70246124	1.49019611
124.70649719	2.01960778
124.71057129	2.64705873
124.71470642	3.31372547
124.71470642	3.66666675
124.71885681	3.03921580
124.72284698	2.19607854
124.72707367	1.60784316
124.72707367	2.01960778
124.73107147	3.05882359
124.73521423	3.80392146
124.73935699	2.62745094
124.74337769	1.70588231
124.74751282	1.49019611
124.74751282	2.35294127
124.75164795	3.29411769
124.75580597	3.70588231
124.75997162	3.03921580
124.75997162	1.76470590
124.76394653	1.03921568
124.76807404	1.50980389
124.77217865	2.80392146
124.77217865	3.25490189
124.77629852	3.27450991
124.78030396	2.35294127
124.78440857	0.80392158
124.78855896	1.64705884
124.79266357	2.66666675
124.79266357	3.15686274
124.79666138	3.17647052
124.80081940	2.09803915
124.80491638	1.31372547
124.80491638	1.56862748
124.80902863	2.54901958
124.81317139	3.41176462
124.81712341	3.92156863
124.81712341	3.62745094
124.82126617	2.47058821
124.82548523	1.60784316
124.82957458	2.96078420
124.83356476	3.50980401
124.83787537	3.80392146
124.83787537	3.09803915
124.84172821	1.92156863
124.84584808	1.29411769
124.84999847	2.21568632
124.84999847	3.17647052
124.85415649	3.72549009
124.85814667	3.52941179
124.86227417	2.49019599
124.86227417	1.35294116
124.86629486	1.17647064
124.87045288	2.31372547
124.87459564	2.86274505
124.87871552	1.72549021
124.88284302	0.09803922
124.88284302	0.00000000
124.88684082	0.05882353
124.89097595	0.58823532
124.89507294	1.58823526
124.89507294	2.58823538
124.89922333	3.17647052
124.90320587	3.31372547
124.90732574	3.50980401
124.90732574	4.70588255
124.91146088	4.98039198
124.91556549	4.98039198
124.91970062	3.50980401
124.92368317	2.19607854
124.92778015	1.96078432
124.92778015	2.88235283
124.93191528	3.43137264
124.93603516	3.52941179
124.94012451	2.88235283
124.94012451	1.96078432
124.94422150	1.21568632
124.94832611	1.70588231
124.95245361	2.50980401
124.95245361	3.03921580
124.95643616	3.07843137
124.96054840	2.33333325
124.96467590	1.25490201
124.96881866	1.74509799
124.97293854	2.64705873
124.97293854	3.07843137
124.97692871	2.92156863
124.98115540	2.01960778
124.98516083	1.11764705
124.98516083	1.11764705
124.98935699	2.07843137
124.99333191	3.05882359
124.99744415	3.33333325
124.99744415	2.62745094
125.00157928	1.66666663
125.00569916	0.82352942
125.00978851	2.45098042
125.01381683	3.21568632
125.01796722	3.25490189
125.01796722	2.25490189
125.02207184	1.39215684
125.02622223	0.72549021
125.03022766	1.50980389
125.03022766	2.45098042
125.03434753	3.03921580
125.03844452	2.56862736
125.04254913	1.19607842
125.04254913	0.35294119
125.04654694	0.31372550
125.05065155	1.62745094
125.05475616	3.03921580
125.05894470	2.54901958
125.06302643	1.54901958
125.06302643	1.07843137
125.06719971	1.60784316
125.07129669	2.54901958
125.07530212	3.03921580
125.07530212	3.11764717
125.07942963	2.19607854
125.08342743	1.03921568
125.08753967	0.96078432
125.08753967	1.56862748
125.09172058	2.50980401
125.09577179	2.78431368
125.09995270	1.37254906
125.10394287	0.52941179
125.10822296	0.62745100
125.10822296	1.60784316
125.11215973	2.35294127
125.11631775	2.76470590
125.12024689	1.90196073
125.12024689	0.58823532
125.12440491	0.15686275
125.12850189	0.84313726
125.13264465	1.92156863
125.13264465	2.31372547
125.13663483	2.21568632
125.14080048	1.41176474
125.14494324	0.29411766
125.14906311	1.37254906
125.15322113	2.50980401
125.15322113	2.88235283
125.15720367	2.43137264
125.16130829	1.50980389
125.16542816	1.19607842
125.16542816	1.39215684
125.16954041	2.50980401
125.17356873	3.58823538
125.17766571	3.88235283
125.17766571	3.13725495
125.18182373	1.92156863
125.18595886	1.60784316
125.19004059	3.54901958
125.19416046	4.33333349
125.19816589	4.13725471
125.19816589	3.21568632
125.20227051	2.27450991
125.20647430	2.31372547
125.21041870	3.31372547
125.21041870	4.01960802
125.21452332	4.41176462
125.21865845	4.19607830
125.22283173	2.88235283
125.22283173	2.13725495
125.22680664	2.29411769
125.23090363	3.19607854
125.23503113	4.35294104
125.23917389	3.70588231
125.24329376	2.50980401
125.24329376	1.78431368
125.24726868	2.56862736
125.25141907	3.62745094
125.25547028	4.29411745
125.25547028	4.15686274
125.25965118	3.07843137
125.26361847	1.92156863
125.26776123	1.68627453
125.26776123	2.70588231
125.27194214	3.52941179
125.27609253	4.11764717
125.28019714	2.23529410
125.28418732	1.47058821
125.28832245	2.00000000
125.28832245	3.13725495
125.29241180	3.96078420
125.29658508	4.07843161
125.30068970	3.27450991
125.30068970	2.17647052
125.30469513	1.72549021
125.30879974	2.47058821
125.31290436	3.17647052
125.31290436	3.58823538
125.31690979	3.86274505
125.32126617	2.86274505
125.32516479	1.84313726
125.32927704	2.56862736
125.33340454	3.54901958
125.33340454	4.23529434
125.33744812	3.64705873
125.34160614	2.33333325
125.34569550	1.47058821
125.34569550	2.15686274
125.34982300	3.05882359
125.35381317	3.70588231
125.35787201	3.88235283
125.35787201	2.96078420
125.36195374	1.82352936
125.36609650	1.56862748
125.37015533	3.37254906
125.37430573	3.80392146
125.37839508	3.49019599
125.37839508	2.47058821
125.38253784	1.84313726
125.38658905	2.00000000
125.39070129	2.80392146
125.39070129	3.52941179
125.39482117	3.68627453
125.39896393	3.31372547
125.40303802	2.17647052
125.40303802	1.66666663
125.40715027	1.94117641
125.41117859	2.68627453
125.41526794	3.72549009
125.41939545	2.76470590
125.42356110	1.56862748
125.42356110	1.19607842
125.42752838	1.92156863
125.43170166	2.92156863
125.43582153	3.62745094
125.43582153	3.23529410
125.43988037	1.68627453
125.44384766	0.98039216
125.44811249	1.15686274
125.44811249	2.25490189
125.45207977	3.11764717
125.45624542	3.31372547
125.46035004	1.49019611
125.46434021	1.19607842
125.46853638	1.82352936
125.46853638	2.76470590
125.47267914	3.49019599
125.47661591	3.76470590
125.48075867	2.98039222
125.48075867	2.00000000
125.48487091	1.84313726
125.48901367	2.60784316
125.49311829	3.41176462
125.49311829	3.88235283
125.49711609	3.45098042
125.50125122	2.33333325
125.50539398	1.76470590
125.50943756	2.84313726
125.51358795	3.60784316
125.51358795	4.00000000
125.51762390	3.33333325
125.52175140	1.96078432
125.52590942	1.19607842
125.52590942	1.76470590
125.52989960	2.76470590
125.53416443	3.41176462
125.53807831	2.80392146
125.53807831	1.47058821
125.54225159	0.39215687
125.54635620	0.05882353
125.55046082	0.88235295
125.55455780	1.60784316
125.55860901	2.01960778
125.55860901	1.94117641
125.56272888	2.43137264
125.56684113	3.13725495
125.57085419	4.56862736
125.57085419	4.98039198
125.57498169	4.98039198
125.57913971	4.76470566
125.58328247	3.62745094
125.58328247	2.47058821
125.58718872	2.68627453
125.59136963	3.35294127
125.59552002	3.86274505
125.59966278	2.68627453
125.60379028	1.60784316
125.60379028	1.25490201
125.60779572	2.07843137
125.61192322	2.94117641
125.61601257	3.49019599
125.61601257	3.13725495
125.62007904	1.96078432
125.62407684	1.09803927
125.62821960	1.33333337
125.62821960	2.41176462
125.63232422	3.15686274
125.63646698	3.29411769
125.64051056	1.43137252
125.64459229	0.90196079
125.64873505	1.52941179
125.64873505	2.45098042
125.65288544	3.29411769
125.65687561	3.25490189
125.66110229	2.39215684
125.66110229	1.21568632
125.66510010	1.01960790
125.66921997	1.92156863
125.67340851	2.82352948
125.67340851	3.43137264
125.67740631	3.05882359
125.68145752	2.03921580
125.68562317	1.09803927
125.68976593	2.29411769
125.69383240	3.17647052
125.69383240	3.39215684
125.69788361	2.41176462
125.70201111	1.13725495
125.70616913	0.76470590
125.70616913	1.64705884
125.71028900	2.74509811
125.71425629	3.21568632
125.71840668	2.80392146
125.71840668	1.66666663
125.72257996	0.92156863
125.72669983	0.84313726
125.73068237	2.64705873
125.73481750	3.13725495
125.73900604	2.82352948
125.73900604	1.62745094
125.74298096	0.74509805
125.74713135	0.96078432
125.75110626	1.82352936
125.75110626	2.60784316
125.75521851	2.90196085
125.75931549	2.17647052
125.76346588	0.86274511
125.76346588	0.19607843
125.76743317	0.96078432
125.77163696	2.09803915
125.77573395	2.50980401
125.77988434	1.25490201
125.78403473	0.35294119
125.78403473	0.33333334
125.78807831	1.35294116
125.79212952	2.13725495
125.79621124	2.47058821
125.79621124	1.92156863
125.80022430	0.76470590
125.80434418	0.17647059
125.80842590	0.70588237
125.80842590	1.60784316
125.81262207	2.45098042
125.81672668	2.68627453
125.82072449	1.33333337
125.82484436	0.88235295
125.82913971	1.68627453
125.82913971	2.80392146
125.83316803	3.49019599
125.83715820	3.68627453
125.84124756	2.72549009
125.84124756	1.82352936
125.84532166	1.74509799
125.84942627	2.64705873
125.85356140	3.76470590
125.85356140	4.27450991
125.85765076	3.90196085
125.86172485	2.84313726
125.86589050	2.52941179
125.86997986	3.54901958
125.87413025	4.13725471
125.87413025	4.41176462
125.87809753	3.66666675
125.88226318	2.41176462
125.88640594	2.11764717
125.88640594	3.03921580
125.89046478	3.82352948
125.89455414	4.13725471
125.89868927	3.98039222
125.89868927	3.03921580
125.90283966	2.00000000
125.90692902	2.11764717
125.91091919	3.90196085
125.91516113	3.94117641
125.91915894	3.31372547
125.91915894	2.23529410
125.92329407	1.54901958
125.92727661	2.13725495
125.93139648	3.17647052
125.93139648	3.92156863
125.93556213	4.17647076
125.93965912	3.29411769
125.94376373	2.03921580
125.94376373	1.43137252
125.94779205	2.21568632
125.95188904	3.39215684
125.95604706	3.58823538
125.96006775	2.52941179
125.96406555	1.68627453
125.96406555	1.54901958
125.96818542	2.64705873
125.97237396	3.50980401
125.97650146	3.80392146
125.97650146	3.29411769
125.98048401	2.13725495
125.98462677	1.35294116
125.98873138	1.78431368
125.98873138	2.74509811
125.99288177	3.35294127
125.99700928	3.64705873
126.00112915	1.50980389
126.00510406	1.23529410
126.00927734	1.96078432
126.00927734	3.23529410
126.01340485	4.01960802
126.01737976	3.05882359
126.02152252	1.88235295
126.02152252	1.43137252
126.02569580	1.78431368
126.02983856	2.74509811
126.03395844	3.74509811
126.03395844	3.80392146
126.03801727	3.17647052
126.04206085	2.05882359
126.04618073	2.01960778
126.05032349	2.94117641
126.05431366	3.78431368
126.05431366	3.84313726
126.05844116	2.96078420
126.06256866	1.80392158
126.06668854	1.27450979
126.06668854	2.19607854
126.07070160	3.27450991
126.07470703	3.90196085
126.07884979	3.58823538
126.07884979	2.39215684
126.08293915	1.47058821
126.08710480	1.70588231
126.09112549	3.70588231
126.09522247	3.84313726
126.09938049	3.03921580
126.09938049	1.70588231
126.10353088	1.37254906
126.10747528	2.00000000
126.11157227	3.21568632
126.11157227	3.96078420
126.11568451	3.90196085
126.11984253	2.84313726
126.12409210	1.70588231
126.12409210	1.52941179
126.12808228	2.52941179
126.13212585	3.45098042
126.13619232	3.49019599
126.14034271	2.15686274
126.14431000	1.49019611
126.14431000	1.94117641
126.14849854	2.49019599
126.15263367	3.13725495
126.15678406	3.37254906
126.15678406	2.86274505
126.16075897	1.70588231
126.16484833	1.17647064
126.16909790	1.82352936
126.16909790	2.54901958
126.17315674	3.09803915
126.17722321	3.17647052
126.18124390	1.05882359
126.18534851	0.68627453
126.18948364	1.70588231
126.18948364	2.76470590
126.19358826	3.35294127
126.19763947	3.33333325
126.20175171	1.98039210
126.20175171	1.29411769
126.20591736	1.64705884
126.21003723	2.94117641
126.21415710	3.74509811
126.21415710	4.03921556
126.21814728	3.27450991
126.22229767	2.01960778
126.22644806	2.54901958
126.23056030	3.49019599
126.23455811	3.96078420
126.23455811	3.68627453
126.23868561	2.90196085
126.24279022	1.88235295
126.24690247	1.90196073
126.24690247	2.72549009
126.25093079	3.62745094
126.25514984	3.94117641
126.25924683	3.49019599
126.25924683	2.33333325
126.26329041	1.37254906
126.26730347	1.62745094
126.27136230	2.84313726
126.27555084	1.98039210
126.27964020	0.62745100
126.27964020	0.00000000
126.28381348	0.01960784
126.28780365	0.72549021
126.29183960	1.82352936
126.29183960	3.11764717
126.29598236	3.98039222
126.30016327	3.96078420
126.30428314	3.43137264
126.30428314	3.56862736
126.30828094	4.43137264
126.31238556	4.98039198
126.31653595	4.33333349
126.32057190	2.98039222
126.32469177	2.11764717
126.32469177	2.27450991
126.32882690	2.78431368
126.33296204	3.45098042
126.33708191	3.58823538
126.33708191	2.84313726
126.34120941	1.76470590
126.34515381	1.03921568
126.34928131	1.70588231
126.34928131	2.80392146
126.35340881	3.49019599
126.35751343	3.37254906
126.36152649	1.47058821
126.36565399	1.05882359
126.36976624	1.96078432
126.36976624	3.09803915
126.37382507	3.50980401
126.37779999	2.90196085
126.38206482	1.72549021
126.38206482	0.92156863
126.38606262	1.50980389
126.39019775	2.45098042
126.39433289	3.15686274
126.39433289	3.19607854
126.39834595	2.21568632
126.40251160	0.96078432
126.40662384	1.66666663
126.41059875	2.76470590
126.41473389	3.07843137
126.41473389	3.00000000
126.41885376	1.96078432
126.42299652	1.09803927
126.42713928	1.05882359
126.42713928	2.00000000
126.43112183	2.82352948
126.43518066	3.33333325
126.43937683	2.76470590
126.43937683	1.66666663
126.44344330	0.98039216
126.44760132	1.33333337
126.45162964	2.98039222
126.45579529	3.19607854
126.45993805	2.21568632
126.45993805	0.98039216
126.46395874	0.58823532
126.46820831	1.41176474
126.47225189	2.37254906
126.47225189	2.92156863
126.47628784	2.64705873
126.48043060	1.49019611
126.48452759	0.62745100
126.48452759	0.68627453
126.48851013	1.66666663
126.49265289	2.60784316
126.49679565	1.90196073
126.50077057	0.94117647
126.50497437	0.29411766
126.50497437	0.88235295
126.50916290	1.90196073
126.51315308	2.31372547
126.51731110	2.29411769
126.51731110	1.56862748
126.52132416	0.58823532
126.52542114	0.13725491
126.52954102	0.90196079
126.52954102	1.84313726
126.53363800	2.43137264
126.53763580	2.27450991
126.54179382	0.33333334
126.54590607	0.47058824
126.55002594	1.66666663
126.55002594	2.58823538
126.55414581	3.01960778
126.55814362	2.49019599
126.56222534	1.35294116
126.56222534	0.70588237
126.56641388	1.58823526
126.57052612	2.78431368
126.57461548	3.58823538
126.57461548	3.56862736
126.57865143	2.72549009
126.58275604	1.68627453
126.58690643	2.60784316
126.59095001	3.60784316
126.59519958	3.92156863
126.59519958	3.58823538
126.59918976	2.62745094
126.60333252	1.84313726
126.60740662	2.23529410
126.60740662	3.07843137
126.61140442	3.76470590
126.61553192	4.03921556
126.61962891	3.56862736
126.61962891	2.27450991
126.62377930	1.74509799
126.62777710	2.35294127
126.63188934	3.88235283
126.63602448	3.84313726
126.64015961	3.13725495
126.64015961	2.07843137
126.64402771	1.88235295
126.64822388	2.60784316
126.65233612	3.50980401
126.65233612	4.11764717
126.65644836	3.50980401
126.66059875	2.45098042
126.66458893	1.74509799
126.66458893	1.92156863
126.66875458	2.80392146
126.67291260	3.64705873
126.67683411	3.37254906
126.68109131	2.27450991
126.68506622	1.23529410
126.68506622	1.86274505
126.68923187	2.96078420
126.69332123	3.68627453
126.69747162	3.84313726
126.69747162	2.82352948
126.70146179	1.82352936
126.70562744	1.74509799
126.70970917	2.56862736
126.70970917	3.27450991
126.71382904	3.72549009
126.71788025	3.52941179
126.72213745	1.47058821
126.72614288	1.80392158
126.73033142	2.88235283
126.73033142	3.52941179
126.73445129	3.60784316
126.73838806	2.86274505
126.74255371	1.92156863
126.74255371	1.45098042
126.74665070	2.07843137
126.75077820	3.17647052
126.75476074	3.60784316
126.75476074	3.31372547
126.75888062	2.50980401
126.76305389	1.58823526
126.76714325	2.41176462
126.77114105	3.33333325
126.77534485	3.70588231
126.77534485	3.15686274
126.77943420	1.98039210
126.78355408	1.31372547
126.78768921	2.01960778
126.78768921	2.96078420
126.79167938	3.33333325
126.79580688	3.52941179
126.79992676	3.00000000
126.79992676	1.98039210
126.80406189	1.37254906
126.80829620	2.25490189
126.81217957	3.70588231
126.81630707	3.52941179
126.82042694	2.47058821
126.82042694	1.58823526
126.82437897	1.47058821
126.82852936	2.45098042
126.83265686	3.29411769
126.83265686	3.82352948
126.83683777	3.37254906
126.84107971	2.27450991
126.84493256	1.37254906
126.84493256	1.60784316
126.84920502	2.84313726
126.85320282	3.52941179
126.85743713	3.09803915
126.86130524	1.98039210
126.86540985	1.56862748
126.86540985	2.21568632
126.86955261	2.88235283
126.87367249	3.62745094
126.87779999	3.62745094
126.87779999	2.70588231
126.88176727	1.94117641
126.88588715	1.78431368
126.89012909	2.43137264
126.89012909	3.23529410
126.89410400	3.86274505
126.89807892	3.35294127
126.90221405	1.33333337
126.90637970	1.78431368
126.91047668	2.68627453
126.91047668	3.45098042
126.91445923	3.70588231
126.91862488	2.84313726
126.92274475	1.70588231
126.92274475	1.21568632
126.92684174	1.82352936
126.93083954	2.76470590
126.93508911	3.17647052
126.93508911	3.15686274
126.93912506	2.05882359
126.94322205	1.19607842
126.94734192	1.82352936
126.95133972	2.74509811
126.95549774	3.23529410
126.95549774	2.82352948
126.95962524	1.62745094
126.96371460	0.88235295
126.96789551	1.47058821
126.96789551	2.68627453
126.97182465	3.50980401
126.97600555	3.74509811
126.98012543	2.92156863
126.98012543	1.90196073
126.98425293	1.56862748
126.98817444	2.39215684
126.99233246	3.90196085
126.99645996	3.88235283
127.00061035	2.54901958
127.00061035	1.74509799
127.00461578	1.90196073
127.00881958	2.64705873
127.01292419	3.37254906
127.01292419	3.76470590
127.01705933	3.25490189
127.02117157	2.07843137
127.02516937	1.21568632
127.02516937	1.64705884
127.02919769	2.58823538
127.03331757	3.05882359
127.03745270	0.98039216
127.04150391	0.00000000
127.04556274	0.00000000
127.04556274	0.49019608
127.04975128	1.33333337
127.05389404	2.05882359
127.05804443	2.47058821
127.05804443	2.45098042
127.06215668	2.66666675
127.06613159	3.49019599
127.07025909	4.80392170
127.07025909	4.98039198
127.07440186	4.98039198
127.07838440	4.62745094
127.08252716	2.15686274
127.08663177	2.56862736
127.09081268	3.07843137
127.09081268	3.52941179
127.09481049	3.60784316
127.09893799	2.74509811
127.10306549	1.80392158
127.10306549	1.35294116
127.10718536	2.21568632
127.11129761	3.01960778
127.11530304	3.29411769
127.11530304	2.82352948
127.11941528	2.05882359
127.12355804	1.39215684
127.12767792	2.35294127
127.13167572	3.11764717
127.13582611	3.39215684
127.13582611	2.66666675
127.13990021	2.13725495
127.14402008	1.17647064
127.14814758	1.62745094
127.14814758	2.54901958
127.15213013	3.07843137
127.15633392	3.41176462
127.16043091	2.47058821
127.16043091	1.43137252
127.16455078	1.07843137
127.16855621	1.98039210
127.17275238	3.27450991
127.17680359	3.00000000
127.18092346	1.78431368
127.18092346	1.11764705
127.18492126	1.33333337
127.18915558	2.31372547
127.19312286	3.03921580
127.19312286	3.31372547
127.19727325	2.64705873
127.20126343	1.50980389
127.20534515	1.03921568
127.20534515	1.66666663
127.20950317	2.45098042
127.21365356	3.15686274
127.21777344	1.94117641
127.22171783	1.25490201
127.22592163	0.80392158
127.22592163	1.80392158
127.23007202	2.56862736
127.23419189	3.05882359
127.23826599	2.84313726
127.23826599	1.52941179
127.24229431	0.72549021
127.24642944	0.60784316
127.25055695	1.72549021
127.25055695	2.62745094
127.25466919	2.90196085
127.25867462	2.29411769
127.26280212	0.35294119
127.26692200	1.00000000
127.27104187	2.17647052
127.27104187	2.62745094
127.27518463	2.47058821
127.27903748	1.52941179
127.28321838	0.58823532
127.28321838	0.37254903
127.28733063	1.35294116
127.29138184	2.35294127
127.29547882	2.68627453
127.29547882	2.13725495
127.29960632	0.92156863
127.30371094	0.39215687
127.30784607	1.80392158
127.31183624	2.52941179
127.31610107	2.86274505
127.31610107	2.35294127
127.32009125	1.45098042
127.32433319	0.60784316
127.32834625	1.56862748
127.32834625	2.76470590
127.33235168	3.68627453
127.33645630	3.64705873
127.34062958	2.70588231
127.34062958	1.68627453
127.34455872	1.66666663
127.34871674	2.50980401
127.35286713	4.05882359
127.35702515	3.54901958
127.36109161	2.60784316
127.36109161	1.92156863
127.36508942	2.25490189
127.36921692	3.41176462
127.37332153	4.01960802
127.37332153	4.19607830
127.37747192	3.35294127
127.38146210	2.29411769
127.38559723	1.70588231
127.38559723	2.52941179
127.38969421	3.58823538
127.39379883	4.05882359
127.39795685	2.86274505
127.40208435	2.09803915
127.40612030	2.03921580
127.40612030	2.92156863
127.41027069	3.74509811
127.41440582	4.27450991
127.41852570	3.68627453
127.41852570	2.39215684
127.42250824	1.68627453
127.42661285	1.92156863
127.43070221	2.96078420
127.43070221	3.62745094
127.43470764	3.80392146
127.43888855	3.11764717
127.44305420	1.54901958
127.44707489	2.21568632
127.45120239	3.05882359
127.45120239	3.78431368
127.45520020	3.66666675
127.45931244	2.54901958
127.46344757	1.58823526
127.46344757	1.49019611
127.46758270	2.33333325
127.47157288	3.35294127
127.47573853	3.58823538
127.47573853	3.19607854
127.47986603	2.07843137
127.48401642	1.49019611
127.48806763	1.80392158
127.48806763	2.88235283
127.49224091	3.56862736
127.49629974	3.58823538
127.49629974	2.96078420
127.50043488	1.68627453
127.50461578	1.35294116
127.50845337	2.09803915
127.50845337	3.03921580
127.51257324	3.66666675
127.51673126	3.50980401
127.52083588	2.35294127
127.52083588	1.47058821
127.52485657	1.29411769
127.52907562	2.50980401
127.53307343	3.35294127
127.53307343	3.56862736
127.53720856	2.98039222
127.54138947	1.92156863
127.54138947	1.43137252
127.54532623	1.96078432
127.54946136	2.90196085
127.55357361	3.41176462
127.55357361	3.50980401
127.55773163	2.72549009
127.56173706	1.90196073
127.56584167	1.72549021
127.56584167	2.37254906
127.56995392	3.17647052
127.57412720	3.68627453
127.57823181	3.49019599
127.57823181	2.50980401
127.58219910	1.76470590
127.58637238	1.52941179
127.58637238	2.41176462
127.59052277	3.21568632
127.59463501	3.72549009
127.59860992	3.27450991
127.59860992	2.17647052
127.60273743	1.43137252
127.60686493	2.01960778
127.61097717	3.09803915
127.61097717	3.64705873
127.61508179	3.86274505
127.61907196	2.78431368
127.62324524	1.86274505
127.62324524	1.54901958
127.62734222	2.27450991
127.63144684	3.31372547
127.63144684	3.88235283
127.63545227	3.68627453
127.63961029	2.52941179
127.64370728	1.58823526
127.64370728	1.58823526
127.64786530	2.78431368
127.65185547	3.72549009
127.65614319	3.82352948
127.65614319	3.15686274
127.66013336	2.13725495
127.66424561	1.52941179
127.66839600	2.03921580
127.66839600	3.03921580
127.67238617	3.70588231
127.67653656	3.78431368
127.67653656	2.76470590
127.68060303	1.68627453
127.68469238	1.39215684
127.68882751	2.49019599
127.68882751	3.27450991
127.69284821	3.72549009
127.69697571	3.41176462
127.70112610	2.05882359
127.70112610	1.25490201
127.70502472	1.49019611
127.70919800	2.37254906
127.71331787	2.92156863
127.71331787	3.52941179
127.71745300	2.66666675
127.72158051	1.52941179
127.72158051	0.94117647
127.72560883	1.49019611
127.72974396	2.49019599
127.73386383	3.11764717
127.73386383	3.13725495
127.73795319	2.21568632
127.74208832	1.07843137
127.74613953	1.13725495
127.74613953	2.09803915
127.75022888	3.17647052
127.75436401	3.82352948
127.75846100	3.41176462
127.75846100	2.33333325
127.76245880	1.58823526
127.76658630	1.94117641
127.76658630	3.01960778
127.77069855	3.78431368
127.77486420	4.11764717
127.77886963	3.15686274
127.77886963	1.88235295
127.78300476	1.56862748
127.78713989	2.37254906
127.79125977	3.25490189
127.79125977	3.82352948
127.79521179	3.84313726
127.79933167	2.62745094
127.80345917	1.74509799
127.80345917	1.37254906
127.80761719	2.09803915
127.81169891	2.66666675
127.81169891	2.96078420
127.81571198	2.05882359
127.81982422	0.50980395
127.82396698	0.00000000
127.82396698	0.11764706
127.82807159	0.60784316
127.83207703	1.29411769
127.83623505	2.11764717
127.83623505	2.49019599
127.84037781	2.43137264
127.84450531	2.78431368
127.84863281	4.00000000
127.84863281	4.98039198
127.85260773	4.98039198
127.85674286	4.70588255
127.85674286	3.58823538
127.86088562	2.37254906
127.86483002	2.35294127
127.86907196	3.01960778
127.86907196	3.62745094
127.87311554	3.84313726
127.87726593	3.33333325
127.88140106	2.15686274
127.88140106	1.49019611
127.88537598	1.92156863
127.88952637	2.94117641
127.89366913	3.60784316
127.89366913	3.68627453
127.89776611	2.90196085
127.90188599	1.76470590
127.90188599	1.33333337
127.90592957	2.07843137
127.90993500	3.25490189
127.91405487	3.88235283
127.91405487	3.78431368
127.91817474	2.70588231
127.92219543	1.66666663
127.92633057	1.47058821
127.92633057	2.31372547
127.93047333	3.49019599
127.93458557	3.92156863
127.93865967	3.45098042
127.93865967	2.25490189
127.94271088	1.49019611
127.94677734	1.88235295
127.94677734	2.94117641
127.95092773	3.49019599
127.95505524	3.66666675
127.95904541	2.94117641
127.95904541	1.84313726
127.96319580	1.45098042
127.96730042	2.11764717
127.97140503	2.92156863
127.97140503	3.72549009
127.97547913	3.27450991
127.97962952	2.27450991
127.98374939	1.39215684
127.98374939	1.37254906
127.98796844	2.27450991
127.99201965	2.94117641
127.99201965	3.49019599
127.99617767	2.82352948
128.00016785	1.52941179
128.00428772	0.70588237
128.00428772	1.49019611
128.00840759	2.58823538
128.01242065	3.11764717
128.01654053	3.09803915
128.01654053	2.17647052
128.02067566	1.21568632
128.02471924	0.96078432
128.02870178	1.47058821
128.02870178	2.31372547
128.03283691	2.56862736
128.03695679	2.43137264
128.03695679	1.41176474
128.04109192	0.76470590
128.04507446	0.62745100
128.04920959	1.27450979
128.04920959	1.94117641
128.05339050	2.50980401
128.05747986	2.05882359
128.06163025	0.92156863
128.06163025	0.09803922
128.06559753	0.68627453
128.06970215	1.62745094
128.07392883	2.33333325
128.07392883	2.47058821
128.07800293	1.66666663
128.08222961	0.76470590
128.08222961	0.27450982
128.08618164	0.82352942
128.09030151	2.03921580
128.09443665	2.84313726
128.09443665	2.66666675
128.09857178	1.60784316
128.10253906	0.72549021
128.10665894	0.94117647
128.10665894	2.03921580
128.11079407	3.01960778
128.11491394	3.62745094
128.11892700	3.15686274
128.11892700	1.90196073
128.12315369	1.45098042
128.12716675	2.19607854
128.12716675	3.45098042
128.13128662	4.09803915
128.13528442	3.94117641
128.13943481	2.98039222
128.13943481	2.15686274
128.14353943	1.76470590
128.14758301	2.68627453
128.15170288	3.84313726
128.15170288	4.45098019
128.15571594	4.00000000
128.15980530	2.84313726
128.16394043	2.09803915
128.16394043	2.23529410
128.16807556	3.25490189
128.17222595	3.98039222
128.17222595	4.21568632
128.17623901	3.72549009
128.18034363	2.31372547
128.18447876	1.72549021
128.18447876	2.31372547
128.18844604	3.31372547
128.19259644	4.01960802
128.19673157	4.11764717
128.19673157	3.03921580
128.20083618	2.03921580
128.20495605	1.68627453
128.20913696	2.58823538
128.20913696	3.33333325
128.21308899	4.00000000
128.21722412	3.78431368
128.21722412	2.58823538
128.22132874	1.72549021
128.22532654	1.84313726
128.22944641	2.80392146
128.22944641	3.64705873
128.23361206	4.00000000
128.23776245	3.31372547
128.24189758	2.07843137
128.24189758	1.47058821
128.24586487	2.11764717
128.24993896	3.07843137
128.25404358	3.58823538
128.25404358	3.58823538
128.25820923	2.72549009
128.26229858	1.76470590
128.26229858	1.66666663
128.26637268	2.60784316
128.27053833	3.15686274
128.27467346	3.76470590
128.27467346	3.31372547
128.27867126	2.11764717
128.28279114	1.39215684
128.28691101	1.80392158
128.28691101	2.88235283
128.29101563	3.62745094
128.29512024	3.68627453
128.29913330	2.58823538
128.29913330	1.56862748
128.30325317	1.17647064
128.30740356	2.13725495
128.30740356	3.21568632
128.31149292	3.78431368
128.31546021	3.68627453
128.31964111	2.62745094
128.31964111	1.58823526
128.32383728	1.41176474
128.32792664	2.41176462
128.33203125	3.33333325
128.33203125	3.68627453
128.33616638	3.35294127
128.34024048	2.23529410
128.34429932	1.23529410
128.34429932	1.52941179
128.34841919	2.66666675
128.35256958	3.58823538
128.35256958	3.90196085
128.35653687	2.80392146
128.36065674	1.84313726
128.36480713	1.25490201
128.36480713	2.00000000
128.36878967	3.03921580
128.37290955	3.64705873
128.37718201	3.54901958
128.37718201	2.58823538
128.38116455	1.64705884
128.38529968	1.45098042
128.38929749	2.45098042
128.38929749	3.45098042
128.39340210	3.92156863
128.39753723	3.37254906
128.39753723	1.98039210
128.40165710	1.29411769
128.40562439	1.76470590
128.40979004	2.70588231
128.40979004	3.27450991
128.41381836	3.60784316
128.41798401	2.92156863
128.42248535	1.92156863
128.42248535	1.45098042
128.42604065	2.09803915
128.43019104	3.13725495
128.43432617	3.80392146
128.43432617	3.43137264
128.43849182	2.49019599
128.44250488	1.54901958
128.44250488	1.41176474
128.44660950	2.29411769
128.45066833	3.29411769
128.45481873	3.45098042
128.45481873	3.23529410
128.45880127	2.09803915
128.46305847	1.33333337
128.46704102	1.74509799
128.46704102	2.84313726
128.47117615	3.33333325
128.47531128	3.52941179
128.47927856	2.50980401
128.47927856	1.50980389
128.48345947	1.25490201
128.48756409	1.74509799
128.48756409	2.66666675
128.49176025	3.52941179
128.49574280	3.11764717
128.49986267	1.94117641
128.49986267	1.15686274
128.50398254	1.19607842
128.50814819	1.98039210
128.51222229	2.56862736
128.51222229	2.90196085
128.51620483	2.66666675
128.52032471	1.68627453
128.52442932	1.03921568
128.52442932	1.54901958
128.52854919	2.56862736
128.53257751	3.49019599
128.53257751	3.78431368
128.53669739	3.00000000
128.54080200	1.84313726
128.54495239	1.50980389
128.54495239	2.31372547
128.54907227	3.39215684
128.55310059	3.80392146
128.55725098	3.68627453
128.55725098	2.52941179
128.56138611	1.76470590
128.56530762	1.68627453
128.56944275	2.70588231
128.56944275	3.78431368
128.57359314	4.13725471
128.57766724	3.35294127
128.57766724	2.00000000
128.58181763	1.27450979
128.58581543	1.62745094
128.59005737	2.50980401
128.59005737	2.82352948
128.59403992	2.23529410
128.59819031	0.62745100
128.60227966	0.00000000
128.60227966	0.00000000
128.60633850	0.49019608
128.61045837	1.72549021
128.61459351	3.03921580
128.61459351	3.74509811
128.61872864	3.60784316
128.62272644	3.29411769
128.62272644	3.80392146
128.62681580	4.98039198
128.63095093	4.98039198
128.63507080	4.98039198
128.63507080	4.17647076
128.63903809	2.96078420
128.64318848	1.92156863
128.64729309	2.35294127
128.64729309	3.07843137
128.65141296	3.60784316
128.65542603	3.62745094
128.65953064	2.72549009
128.65953064	1.84313726
128.66363525	1.31372547
128.66786194	2.13725495
128.66786194	3.00000000
128.67196655	3.49019599
128.67613220	3.05882359
128.68009949	2.00000000
128.68009949	1.27450979
128.68426514	1.41176474
128.68832397	2.47058821
128.69250488	3.19607854
128.69250488	3.45098042
128.69644165	2.74509811
128.70057678	1.66666663
128.70466614	1.11764705
128.70466614	1.47058821
128.70878601	2.54901958
128.71284485	3.23529410
128.71284485	3.27450991
128.71716309	2.33333325
128.72116089	1.31372547
128.72528076	0.96078432
128.72528076	1.90196073
128.72929382	2.90196085
128.73341370	3.47058821
128.73753357	3.05882359
128.73753357	1.72549021
128.74165344	1.03921568
128.74562073	1.09803927
128.74974060	2.07843137
128.74974060	2.92156863
128.75389099	3.15686274
128.75799561	2.33333325
128.75799561	1.41176474
128.76216125	0.80392158
128.76612854	1.29411769
128.77027893	2.25490189
128.77027893	2.80392146
128.77450562	2.74509811
128.77856445	2.07843137
128.78268433	0.82352942
128.78268433	0.50980395
128.78665161	1.47058821
128.79087830	2.50980401
128.79493713	3.07843137
128.79493713	2.68627453
128.79905701	1.49019611
128.80319214	0.64705884
128.80319214	0.78431374
128.80715942	1.72549021
128.81127930	2.43137264
128.81541443	2.76470590
128.81541443	2.00000000
128.81942749	0.78431374
128.82353210	0.25490198
128.82765198	0.92156863
128.82765198	1.86274505
128.83177185	2.47058821
128.83569336	2.37254906
128.83981323	1.39215684
128.83981323	0.35294119
128.84397888	0.17647059
128.84809875	0.98039216
128.84809875	2.03921580
128.85215759	2.58823538
128.85618591	2.03921580
128.86027527	0.78431374
128.86027527	0.17647059
128.86447144	0.70588237
128.86863708	1.58823526
128.87275696	2.64705873
128.87275696	2.54901958
128.87675476	2.05882359
128.88081360	1.25490201
128.88493347	0.84313726
128.88493347	1.64705884
128.88908386	2.68627453
128.89306641	3.49019599
128.89306641	3.68627453
128.89730835	2.72549009
128.90141296	1.78431368
128.90573120	1.66666663
128.90573120	2.76470590
128.90953064	3.66666675
128.91366577	4.29411745
128.91778564	3.76470590
128.91778564	2.60784316
128.92184448	1.82352936
128.92587280	2.13725495
128.93011475	3.21568632
128.93011475	4.03921556
128.93411255	4.21568632
128.93830872	3.35294127
128.93830872	2.07843137
128.94224548	1.60784316
128.94636536	2.50980401
128.95045471	3.41176462
128.95045471	3.82352948
128.95472717	3.70588231
128.95877075	2.49019599
128.96287537	1.45098042
128.96287537	1.49019611
128.96687317	2.37254906
128.97100830	3.31372547
128.97511292	3.47058821
128.97511292	2.76470590
128.97912598	2.05882359
128.98330688	1.03921568
128.98330688	1.64705884
128.98744202	2.96078420
128.99153137	3.21568632
128.99568176	3.27450991
128.99568176	2.70588231
128.99964905	1.60784316
129.00378418	1.15686274
129.00790405	1.88235295
129.00790405	2.70588231
129.01202393	3.49019599
129.01615906	3.33333325
129.02015686	2.37254906
129.02015686	1.29411769
129.02424622	1.17647064
129.02839661	2.19607854
129.02839661	3.11764717
129.03236389	3.68627453
129.03648376	3.21568632
129.04063416	1.80392158
129.04063416	1.09803927
129.04476929	1.64705884
129.04890442	2.86274505
129.05287170	3.50980401
129.05287170	3.52941179
129.05725098	2.68627453
129.06112671	1.39215684
129.06527710	1.11764705
129.06527710	2.15686274
129.06925964	3.17647052
129.07337952	3.50980401
129.07337952	3.21568632
129.07748413	2.05882359
129.08161926	1.31372547
129.08575439	1.56862748
129.08575439	2.52941179
129.08973694	3.05882359
129.09387207	3.37254906
129.09799194	2.82352948
129.09799194	1.82352936
129.10214233	1.15686274
129.10612488	1.88235295
129.11024475	2.88235283
129.11024475	3.41176462
129.11441040	3.33333325
129.11854553	2.37254906
129.11854553	1.52941179
129.12252808	1.35294116
129.12664795	2.15686274
129.13078308	2.98039222
129.13078308	3.37254906
129.13491821	3.21568632
129.13902283	2.39215684
129.14315796	1.47058821
129.14315796	1.35294116
129.14715576	2.31372547
129.15124512	3.03921580
129.15536499	3.52941179
129.15536499	3.03921580
129.15939331	1.84313726
129.16349792	1.09803927
129.16349792	1.66666663
129.16758728	2.72549009
129.17172241	3.47058821
129.17584229	2.96078420
129.17584229	1.78431368
129.17982483	1.05882359
129.18395996	0.84313726
129.18803406	1.94117641
129.18803406	2.78431368
129.19216919	3.03921580
129.19622803	2.72549009
129.20031738	1.52941179
129.20031738	0.68627453
129.20442200	0.76470590
129.20855713	1.64705884
129.20855713	2.45098042
129.21257019	2.86274505
129.21664429	2.47058821
129.22079468	1.52941179
129.22079468	1.00000000
129.22492981	1.70588231
129.22906494	2.82352948
129.23306274	3.47058821
129.23306274	3.54901958
129.23718262	2.47058821
129.24134827	1.66666663
129.24549866	1.23529410
129.24549866	2.07843137
129.24952698	3.05882359
129.25366211	3.54901958
129.25366211	3.27450991
129.25782776	2.01960778
129.26190186	1.13725495
129.26602173	1.52941179
129.26602173	2.37254906
129.27015686	3.23529410
129.27415466	3.47058821
129.27828979	2.49019599
129.27828979	1.39215684
129.28231812	0.70588237
129.28636169	1.31372547
129.29045105	1.94117641
129.29045105	2.19607854
129.29457092	1.68627453
129.29869080	0.25490198
129.29869080	0.00000000
129.30270386	0.11764706
129.30680847	0.90196079
129.31106567	2.43137264
129.31106567	4.11764717
129.31507874	4.94117641
129.31918335	4.62745094
129.32321167	4.17647076
129.32321167	4.27450991
129.32734680	4.98039198
129.33143616	4.98039198
129.33557129	4.98039198
129.33557129	4.01960802
129.33958435	2.47058821
129.34367371	1.66666663
129.34367371	1.92156863
129.34780884	2.54901958
129.35188293	3.07843137
129.35606384	2.88235283
129.35606384	1.80392158
129.36009216	0.78431374
129.36422729	0.70588237
129.36834717	1.60784316
129.36834717	2.41176462
129.37249756	2.80392146
129.37648010	2.62745094
129.38059998	1.41176474
129.38059998	0.47058824
129.38478088	0.90196079
129.38899231	2.09803915
129.38899231	2.90196085
129.39289856	3.01960778
129.39714050	1.98039210
129.40112305	0.92156863
129.40112305	0.49019608
129.40527344	1.35294116
129.40936279	2.33333325
129.41339111	2.88235283
129.41339111	2.80392146
129.41748047	1.82352936
129.42156982	0.72549021
129.42576599	0.62745100
129.42576599	1.64705884
129.42965698	2.43137264
129.43379211	2.86274505
129.43379211	2.39215684
129.43797302	1.21568632
129.44207764	0.47058824
129.44618225	0.98039216
129.44618225	1.92156863
129.45019531	2.66666675
129.45433044	2.82352948
129.45846558	2.15686274
129.45846558	1.09803927
129.46255493	0.50980395
129.46661377	1.27450979
129.47071838	2.15686274
129.47071838	2.78431368
129.47482300	2.64705873
129.47892761	1.31372547
129.47892761	0.39215687
129.48307800	0.49019608
129.48707581	1.45098042
129.49125671	2.15686274
129.49125671	2.60784316
129.49531555	2.23529410
129.49949646	0.80392158
129.50347900	0.03921569
129.50347900	0.39215687
129.50762939	1.41176474
129.51173401	1.90196073
129.51582336	2.17647052
129.51582336	1.21568632
129.51982117	0.07843138
129.52407837	0.05882353
129.52407837	0.82352942
129.52809143	1.72549021
129.53227234	2.41176462
129.53640747	1.66666663
129.53640747	0.37254903
129.54040527	0.01960784
129.54447937	0.33333334
129.54861450	1.31372547
129.54861450	1.90196073
129.55274963	2.09803915
129.55677795	1.52941179
129.56085205	0.50980395
129.56085205	0.03921569
129.56501770	0.62745100
129.56913757	1.72549021
129.56913757	2.41176462
129.57316589	2.54901958
129.57727051	1.82352936
129.58140564	0.98039216
129.58140564	0.86274511
129.58543396	1.86274505
129.58950806	2.72549009
129.59358215	3.25490189
129.59358215	3.25490189
129.59768677	2.31372547
129.60185242	1.56862748
129.60594177	1.68627453
129.60594177	2.62745094
129.61006165	3.52941179
129.61404419	3.86274505
129.61404419	3.33333325
129.61816406	2.29411769
129.62231445	1.56862748
129.62641907	2.13725495
129.62641907	3.13725495
129.63041687	3.84313726
129.63462830	3.98039222
129.63867188	3.13725495
129.63867188	1.84313726
129.64274597	1.37254906
129.64685059	2.17647052
129.65115356	3.27450991
129.65115356	3.76470590
129.65510559	3.52941179
129.65925598	2.39215684
129.65925598	1.56862748
129.66319275	1.45098042
129.66740417	2.41176462
129.67146301	3.25490189
129.67146301	3.62745094
129.67561340	3.07843137
129.67964172	1.76470590
129.68367004	0.98039216
129.68367004	1.58823526
129.68780518	2.72549009
129.69192505	3.31372547
129.69604492	3.33333325
129.69604492	2.29411769
129.70002747	1.13725495
129.70417786	0.92156863
129.70417786	1.84313726
129.70832825	2.94117641
129.71246338	3.56862736
129.71655273	3.19607854
129.71655273	1.90196073
129.72053528	1.03921568
129.72465515	1.13725495
129.72885132	2.01960778
129.72885132	2.86274505
129.73278809	3.33333325
129.73706055	2.78431368
129.74105835	1.56862748
129.74105835	0.90196079
129.74514771	1.50980389
129.74928284	2.50980401
129.74928284	3.27450991
129.75326538	3.21568632
129.75738525	2.31372547
129.76152039	1.27450979
129.76152039	0.92156863
129.76564026	1.72549021
129.76974487	2.78431368
129.77386475	3.23529410
129.77386475	2.94117641
129.77796936	1.82352936
129.78213501	0.98039216
129.78622437	1.03921568
129.78622437	2.09803915
129.79016113	2.80392146
129.79428101	3.11764717
129.79428101	2.64705873
129.79843140	1.56862748
129.80255127	0.86274511
129.80667114	1.47058821
129.80667114	2.41176462
129.81069946	3.27450991
129.81486511	3.41176462
129.81900024	2.49019599
129.81900024	1.47058821
129.82312012	1.11764705
129.82711792	1.96078432
129.83117676	3.01960778
129.83117676	3.56862736
129.83528137	3.19607854
129.83946228	2.01960778
129.83946228	1.05882359
129.84342957	1.13725495
129.84753418	2.17647052
129.85168457	3.15686274
129.85168457	3.54901958
129.85577393	2.94117641
129.85975647	1.84313726
129.86404419	1.27450979
129.86404419	1.88235295
129.86802673	2.64705873
129.87219238	3.33333325
129.87637329	3.37254906
129.87637329	2.45098042
129.88034058	1.47058821
129.88449097	1.29411769
129.88449097	2.13725495
129.88856506	3.13725495
129.89274597	3.74509811
129.89688110	3.41176462
129.89688110	2.21568632
129.90078735	1.39215684
129.90489197	1.49019611
129.90902710	2.52941179
129.90902710	3.25490189
129.91304016	3.56862736
129.91723633	2.80392146
129.92149353	1.62745094
129.92149353	0.90196079
129.92549133	1.52941179
129.92964172	2.50980401
129.92964172	3.17647052
129.93360901	3.03921580
129.93772888	2.05882359
129.94186401	1.11764705
129.94186401	0.78431374
129.94602966	1.56862748
129.95013428	2.49019599
129.95411682	3.01960778
129.95411682	2.64705873
129.95825195	1.56862748
129.96235657	0.96078432
129.96649170	1.37254906
129.96649170	2.47058821
129.97047424	3.47058821
129.97460938	3.60784316
129.97460938	2.92156863
129.97875977	1.66666663
129.98280334	1.31372547
129.98699951	1.88235295
129.98699951	2.74509811
129.99111938	3.56862736
129.99508667	3.56862736
129.99926758	2.39215684
129.99926758	1.27450979
130.00325012	1.19607842
130.00738525	2.19607854
130.01153564	3.21568632
130.01153564	3.49019599
130.01560974	2.98039222
130.01974487	1.60784316
130.01974487	0.80392158
130.02375793	1.07843137
130.02784729	1.78431368
130.03202820	1.98039210
130.03202820	1.49019611
130.03611755	0.29411766
130.04016113	0.00000000
130.04425049	0.00000000
130.04425049	0.60784316
130.04840088	2.15686274
130.05252075	3.80392146
130.05664063	4.90196085
130.05664063	4.66666651
130.06062317	4.00000000
130.06477356	3.74509811
130.06477356	4.50980377
130.06881714	4.98039198
130.07295227	4.98039198
130.07707214	4.21568632
130.07707214	2.80392146
130.08106995	1.72549021
130.08518982	1.94117641
130.08932495	2.70588231
130.08932495	3.29411769
130.09333801	3.43137264
130.09748840	2.47058821
130.10159302	1.31372547
130.10159302	0.98039216
130.10572815	1.70588231
130.10986328	2.60784316
130.10986328	3.43137264
130.11384583	3.31372547
130.11798096	2.15686274
130.12207031	0.94117647
130.12207031	0.94117647
130.12623596	1.98039210
130.13027954	2.96078420
130.13439941	3.47058821
130.13439941	3.01960778
130.13851929	1.74509799
130.14266968	1.05882359
130.14678955	1.45098042
130.14678955	2.47058821
130.15075684	3.19607854
130.15487671	3.35294127
130.15902710	1.03921568
130.16313171	0.84313726
130.16714478	1.76470590
130.16714478	2.78431368
130.17126465	3.41176462
130.17535400	3.21568632
130.17951965	2.01960778
130.17951965	1.17647064
130.18347168	1.27450979
130.18757629	2.21568632
130.19172668	2.98039222
130.19172668	3.27450991
130.19580078	2.43137264
130.19987488	1.19607842
130.19987488	0.82352942
130.20405579	1.43137252
130.20806885	2.33333325
130.21217346	3.05882359
130.21217346	3.25490189
130.21627808	2.21568632
130.22035217	1.19607842
130.22447205	0.92156863
130.22447205	1.56862748
130.22860718	2.45098042
130.23274231	3.00000000
130.23686218	2.74509811
130.23686218	1.39215684
130.24085999	0.54901963
130.24511719	0.94117647
130.24511719	1.66666663
130.24911499	2.47058821
130.25315857	2.94117641
130.25729370	2.21568632
130.25729370	0.88235295
130.26141357	0.23529412
130.26554871	0.98039216
130.26966858	2.07843137
130.26966858	2.58823538
130.27365112	2.31372547
130.27778625	1.27450979
130.28190613	0.35294119
130.28190613	0.25490198
130.28602600	1.19607842
130.29016113	2.01960778
130.29414368	2.31372547
130.29826355	1.13725495
130.30239868	0.37254903
130.30239868	0.50980395
130.30659485	1.64705884
130.31108093	2.50980401
130.31462097	2.90196085
130.31462097	2.37254906
130.31875610	1.29411769
130.32337952	0.82352942
130.32698059	1.50980389
130.32698059	2.78431368
130.33111572	3.37254906
130.33508301	3.50980401
130.33921814	1.54901958
130.34335327	1.45098042
130.34735107	2.50980401
130.34735107	3.56862736
130.35148621	3.86274505
130.35557556	3.68627453
130.35974121	2.50980401
130.35974121	1.72549021
130.36373901	1.90196073
130.36784363	3.15686274
130.37194824	3.86274505
130.37194824	4.09803915
130.37611389	3.33333325
130.38024902	2.33333325
130.38420105	2.29411769
130.38830566	3.29411769
130.39247131	3.92156863
130.39247131	3.74509811
130.39648438	2.70588231
130.40063477	1.82352936
130.40476990	1.66666663
130.40476990	2.82352948
130.40892029	3.45098042
130.41304016	3.98039222
130.41714478	3.47058821
130.41714478	2.25490189
130.42114258	1.37254906
130.42527771	1.66666663
130.42938232	3.37254906
130.43351746	3.56862736
130.43751526	2.98039222
130.43751526	1.74509799
130.44163513	1.23529410
130.44580078	1.88235295
130.44989014	2.84313726
130.44989014	3.58823538
130.45381165	3.45098042
130.45793152	2.47058821
130.46206665	1.50980389
130.46206665	1.35294116
130.46620178	2.05882359
130.47029114	2.92156863
130.47430420	3.23529410
130.47840881	2.03921580
130.48254395	1.03921568
130.48254395	1.37254906
130.48669434	2.50980401
130.49073792	3.37254906
130.49484253	3.47058821
130.49484253	2.58823538
130.49899292	1.56862748
130.50312805	1.35294116
130.50724792	2.17647052
130.50724792	3.03921580
130.51124573	3.66666675
130.51539612	3.58823538
130.51951599	1.58823526
130.52354431	1.45098042
130.52764893	2.39215684
130.52764893	3.31372547
130.53176880	3.68627453
130.53590393	3.52941179
130.54002380	2.37254906
130.54002380	1.35294116
130.54412842	1.72549021
130.54814148	2.78431368
130.55226135	3.64705873
130.55226135	3.78431368
130.55635071	3.21568632
130.56048584	2.03921580
130.56446838	2.11764717
130.56857300	3.03921580
130.57276917	3.50980401
130.57276917	3.58823538
130.57676697	2.62745094
130.58088684	1.56862748
130.58503723	1.50980389
130.58503723	2.50980401
130.58903503	3.52941179
130.59318542	3.84313726
130.59716797	3.43137264
130.59716797	2.09803915
130.60133362	1.35294116
130.60539246	1.84313726
130.60960388	3.80392146
130.61358643	3.92156863
130.61770630	2.86274505
130.61770630	1.62745094
130.62179565	1.17647064
130.62593079	2.03921580
130.63011169	3.19607854
130.63011169	3.80392146
130.63407898	3.47058821
130.63821411	2.17647052
130.64231873	1.11764705
130.64231873	1.00000000
130.64648438	1.98039210
130.65046692	3.15686274
130.65464783	2.88235283
130.65876770	1.78431368
130.66290283	1.01960790
130.66290283	1.54901958
130.66688538	2.90196085
130.67114258	3.70588231
130.67510986	3.98039222
130.67510986	3.07843137
130.67921448	1.90196073
130.68336487	1.56862748
130.68730164	2.41176462
130.68730164	3.58823538
130.69143677	4.13725471
130.69555664	3.76470590
130.69967651	1.74509799
130.70367432	1.72549021
130.70787048	2.80392146
130.70787048	3.50980401
130.71195984	3.80392146
130.71601868	3.50980401
130.72016907	2.41176462
130.72016907	1.72549021
130.72415161	2.13725495
130.72825623	3.01960778
130.73240662	3.45098042
130.73240662	3.62745094
130.73651123	2.50980401
130.74053955	1.05882359
130.74464417	0.41176471
130.74876404	0.86274511
130.75288391	0.98039216
130.75288391	0.74509805
130.75701904	0.13725491
130.76107788	0.27450982
130.76521301	1.68627453
130.76521301	3.80392146
130.76936340	4.98039198
130.77348328	4.98039198
130.77746582	4.92156839
130.77746582	4.00000000
130.78158569	3.01960778
130.78565979	3.23529410
130.78982544	4.52941179
130.79374695	4.47058821
130.79800415	3.21568632
130.79800415	1.90196073
130.80212402	1.41176474
130.80622864	2.19607854
130.81037903	3.15686274
130.81037903	3.68627453
130.81440735	3.37254906
130.81851196	2.23529410
130.82278442	1.15686274
130.82278442	1.31372547
