41.67589951	2.90196085
41.68013382	3.31372547
41.68013382	2.66666675
41.68413162	2.09803915
41.68828583	1.90196073
41.69242096	1.56862748
41.69242096	1.98039210
41.69641113	2.94117641
41.70072174	3.41176462
41.70467758	3.19607854
41.70467758	2.43137264
41.70880508	1.90196073
41.71293640	1.96078432
41.71293640	2.74509811
41.71687698	4.11764717
41.72100449	4.74509811
41.72513199	4.11764717
41.72513199	2.88235283
41.72921371	2.09803915
41.73327637	2.23529410
41.73741913	3.35294127
41.73741913	4.47058821
41.74156570	4.86274529
41.74569321	4.15686274
41.74977493	3.49019599
41.74977493	3.35294127
41.75379562	3.52941179
41.75784302	4.15686274
41.75784302	4.50980377
41.76201248	3.94117641
41.76614380	3.17647052
41.77018738	2.64705873
41.77018738	2.74509811
41.77423477	3.49019599
41.77842331	4.21568632
41.78247833	4.58823538
41.78247833	3.82352948
41.78671265	3.01960778
41.79065323	2.33333325
41.79478836	2.07843137
41.79478836	3.13725495
41.79895782	4.15686274
41.80302048	4.00000000
41.80302048	2.74509811
41.80701065	2.01960778
41.81118011	1.86274505
41.81526184	2.07843137
41.81526184	2.56862736
41.81942368	2.92156863
41.82338715	2.72549009
41.82763290	1.98039210
41.82763290	1.19607842
41.83164597	1.01960790
41.83578110	1.82352936
41.83988571	2.66666675
41.83988571	2.49019599
41.84391785	1.49019611
41.84799576	1.07843137
41.84799576	0.96078432
41.85219193	1.19607842
41.85625458	2.11764717
41.86031723	3.00000000
41.86031723	2.84313726
41.86442947	1.78431368
41.86845016	1.13725495
41.87266922	1.09803927
41.87266922	1.66666663
41.87661743	2.88235283
41.88077927	3.41176462
41.88500977	3.19607854
41.88500977	2.21568632
41.88901520	1.47058821
41.89317703	1.37254906
41.89317703	2.29411769
41.89710617	3.23529410
41.90124512	3.25490189
41.90538788	2.43137264
41.90538788	1.66666663
41.90949249	1.23529410
41.91368866	1.31372547
41.91767120	2.23529410
41.91767120	2.70588231
41.92184830	2.49019599
41.92594147	1.58823526
41.93005753	1.19607842
41.93005753	1.00000000
41.93399429	1.74509799
41.93814850	2.74509811
41.93814850	3.17647052
41.94223022	3.35294127
41.94640732	2.17647052
41.95039749	1.41176474
41.95039749	1.23529410
41.95453262	2.05882359
41.95861435	3.03921580
41.96273422	3.11764717
41.96273422	2.43137264
41.96677399	1.49019611
41.97090912	1.52941179
41.97506332	1.84313726
41.97506332	2.64705873
41.97919846	3.19607854
41.98332977	2.82352948
41.98332977	1.94117641
41.98727036	1.05882359
41.99142838	1.05882359
41.99555969	2.09803915
41.99555969	3.05882359
41.99968719	3.33333325
42.00364304	2.76470590
42.00770950	2.19607854
42.00770950	2.09803915
42.01185226	2.07843137
42.01602173	2.80392146
42.02012634	3.41176462
42.02012634	3.43137264
42.02410889	2.80392146
42.02822876	2.05882359
42.02822876	1.72549021
42.03238297	1.74509799
42.03636169	2.35294127
42.04070663	3.31372547
42.04070663	2.54901958
42.04469299	1.56862748
42.04880524	0.94117647
42.05295944	0.98039216
42.05295944	1.92156863
42.05694199	3.21568632
42.06105423	3.58823538
42.06515884	3.00000000
42.06515884	1.60784316
42.06912231	1.01960790
42.07339859	1.23529410
42.07339859	1.98039210
42.07738113	2.88235283
42.08153534	3.49019599
42.08564758	3.29411769
42.08564758	2.76470590
42.08978271	2.41176462
42.09373093	2.49019599
42.09786987	3.29411769
42.09786987	3.76470590
42.10210419	3.68627453
42.10614395	3.15686274
42.11022949	3.37254906
42.11022949	3.72549009
42.11425400	4.15686274
42.11839676	4.74509811
42.11839676	4.21568632
42.12258530	2.11764717
42.12669754	0.00000000
42.13069534	0.00000000
42.13069534	0.00000000
42.13492966	0.54901963
42.13895035	1.13725495
42.14294052	1.41176474
42.14294052	0.88235295
42.14699554	0.41176471
42.15114212	0.54901963
42.15527725	1.33333337
42.15527725	2.39215684
42.15937424	3.03921580
42.16351318	2.98039222
42.16351318	2.19607854
42.16768265	1.37254906
42.17166901	1.33333337
42.17577362	2.00000000
42.17577362	2.90196085
42.17981339	3.47058821
42.18391037	3.01960778
42.18804550	1.27450979
42.18804550	0.56862748
42.19210815	1.15686274
42.19621277	2.37254906
42.20036697	3.31372547
42.20036697	3.45098042
42.20438766	3.11764717
42.20851898	2.41176462
42.20851898	1.78431368
42.21257401	1.98039210
42.21660233	3.01960778
42.22076416	3.74509811
42.22076416	3.78431368
42.22486115	2.82352948
42.22905731	1.96078432
42.23320007	1.72549021
42.23320007	2.39215684
42.23711777	3.47058821
42.24129486	3.86274505
42.24534225	3.33333325
42.24534225	2.19607854
42.24951935	1.58823526
42.25363922	1.68627453
42.25363922	2.68627453
42.25762177	3.80392146
42.26175690	4.19607830
42.26581955	3.58823538
42.26581955	2.52941179
42.26987457	1.72549021
42.27396393	2.05882359
42.27807617	3.09803915
42.27807617	3.84313726
42.28222275	4.01960802
42.28640747	3.03921580
42.29056931	2.07843137
42.29056931	1.80392158
42.29470444	2.84313726
42.29868698	3.70588231
42.29868698	3.94117641
42.30279160	4.13725471
42.30672455	3.70588231
42.31090164	3.31372547
42.31090164	3.47058821
42.31504059	4.13725471
42.31918335	4.86274529
42.32335281	4.92156839
42.32335281	4.25490189
42.32730103	3.21568632
42.33146286	2.49019599
42.33554459	2.49019599
42.33554459	3.74509811
42.33967209	4.27450991
42.34386826	3.86274505
42.34386826	2.58823538
42.34776688	1.84313726
42.35186005	1.88235295
42.35604095	2.45098042
42.35604095	3.19607854
42.36000443	3.72549009
42.36408234	2.94117641
42.36828613	2.11764717
42.36828613	1.50980389
42.37239838	1.68627453
42.37649536	2.43137264
42.38067245	3.29411769
42.38067245	3.64705873
42.38468552	2.60784316
42.38879013	1.56862748
42.38879013	1.00000000
42.39287949	1.41176474
42.39684296	2.90196085
42.40100479	3.13725495
42.40100479	2.84313726
42.40519333	1.76470590
42.40927887	1.15686274
42.41342545	1.05882359
42.41342545	1.70588231
42.41737366	2.45098042
42.42152786	2.80392146
42.42566299	2.50980401
42.42566299	1.68627453
42.42980957	0.70588237
42.43391418	0.76470590
42.43391418	2.15686274
42.43799210	3.41176462
42.44207382	3.21568632
42.44620132	2.25490189
42.44620132	1.17647064
42.45021439	1.11764705
42.45431137	1.92156863
42.45856094	2.88235283
42.45856094	3.03921580
42.46254349	2.66666675
42.46664047	1.92156863
42.47076035	1.64705884
42.47076035	1.43137252
42.47475815	1.98039210
42.47883606	2.84313726
42.47883606	2.90196085
42.48302460	2.11764717
42.48700333	1.37254906
42.49110794	0.86274511
42.49110794	0.78431374
42.49528885	2.15686274
42.49934387	3.05882359
42.50363541	2.74509811
42.50363541	1.72549021
42.50765610	1.25490201
42.51163101	1.23529410
42.51579285	1.76470590
42.51579285	2.33333325
42.51987839	2.33333325
42.52404785	1.82352936
42.52404785	1.50980389
42.52803802	1.33333337
42.53211975	1.31372547
42.53626251	1.74509799
42.53626251	2.72549009
42.54023743	3.13725495
42.54439926	2.19607854
42.54861069	1.21568632
42.54861069	0.94117647
42.55267334	1.68627453
42.55676651	2.64705873
42.56084824	3.15686274
42.56084824	2.92156863
42.56488800	2.21568632
42.56902313	2.03921580
42.57315063	2.13725495
42.57714081	3.29411769
42.58123779	3.52941179
42.58123779	3.25490189
42.58539963	2.23529410
42.58946228	1.62745094
42.59364700	1.45098042
42.59364700	1.80392158
42.59760666	2.56862736
42.60177612	2.39215684
42.60588074	1.74509799
42.60588074	0.86274511
42.60997391	0.66666669
42.61404037	0.88235295
42.61817551	2.25490189
42.62232971	2.29411769
42.62642670	1.72549021
42.62642670	1.15686274
42.63040543	0.70588237
42.63465118	1.15686274
42.63864899	2.13725495
42.63864899	2.70588231
42.64268494	2.13725495
42.64684677	1.05882359
42.65085220	1.37254906
42.65085220	1.74509799
42.65506363	2.76470590
42.65911865	3.25490189
42.66325760	3.49019599
42.66724396	2.49019599
42.67138290	2.52941179
42.67138290	3.45098042
42.67551041	4.62745094
42.67967987	4.94117641
42.68382645	4.47058821
42.68382645	2.96078420
42.68778229	0.82352942
42.69193649	0.00000000
42.69604874	0.00000000
42.69604874	0.68627453
42.70018387	0.74509805
42.70422363	0.21568628
42.70834351	0.00000000
42.71242523	0.13725491
42.71657944	1.33333337
42.71657944	1.96078432
42.72070694	2.23529410
42.72467804	1.62745094
42.72883987	0.90196079
42.72883987	0.50980395
42.73283005	0.80392158
42.73702621	2.21568632
42.74095535	3.27450991
42.74095535	3.15686274
42.74510956	1.76470590
42.74924088	0.96078432
42.75332642	1.92156863
42.75740814	3.01960778
42.76166534	3.49019599
42.76166534	2.88235283
42.76567078	1.58823526
42.76977539	0.88235295
42.77387238	0.78431374
42.77387238	1.74509799
42.77789307	2.76470590
42.78195953	2.66666675
42.78615952	1.68627453
42.78615952	1.07843137
42.79012680	0.70588237
42.79423141	0.74509805
42.79838943	2.86274505
42.80254364	3.01960778
42.80660629	2.05882359
42.80660629	1.35294116
42.81058884	1.19607842
42.81474304	1.68627453
42.81887054	2.68627453
42.81887054	2.98039222
42.82306671	2.88235283
42.82699966	1.92156863
42.83116913	1.27450979
42.83116913	1.58823526
42.83532715	2.64705873
42.83940125	3.15686274
42.84346390	2.39215684
42.84766769	1.58823526
42.85168076	1.03921568
42.85168076	1.49019611
42.85574341	2.90196085
42.85982132	3.52941179
42.86401749	3.60784316
42.86401749	2.74509811
42.86799240	1.80392158
42.87213516	1.50980389
42.87624741	2.56862736
42.87624741	3.62745094
42.88028717	4.03921556
42.88443375	3.27450991
42.88869095	1.58823526
42.89258957	1.90196073
42.89669418	2.70588231
42.89669418	3.80392146
42.90075684	3.86274505
42.90488052	3.07843137
42.90902328	2.03921580
42.90902328	1.70588231
42.91318512	2.05882359
42.91715240	3.07843137
42.92123795	3.49019599
42.92123795	3.37254906
42.92535019	1.86274505
42.92948914	0.68627453
42.93361664	1.49019611
42.93762970	1.96078432
42.94176865	2.17647052
42.94176865	1.52941179
42.94585419	1.09803927
42.94998550	0.72549021
42.95414734	0.62745100
42.95414734	1.19607842
42.95812607	2.17647052
42.96223068	2.37254906
42.96635818	1.17647064
42.96635818	0.09803922
42.97050476	0.00000000
42.97455978	0.58823532
42.97860718	2.25490189
42.98271942	2.39215684
42.98687363	1.56862748
42.98687363	0.86274511
42.99122238	0.76470590
42.99496841	1.13725495
42.99916077	1.76470590
42.99916077	2.66666675
43.00337982	2.19607854
43.00729370	0.84313726
43.01137543	0.47058824
43.01137543	0.60784316
43.01545334	1.43137252
43.01964951	2.64705873
43.02373505	1.96078432
43.02777481	0.84313726
43.03184509	0.33333334
43.03184509	1.01960790
43.03605652	2.13725495
43.04014587	2.72549009
43.04425049	2.74509811
43.04425049	1.78431368
43.04822159	0.60784316
43.05237579	0.31372550
43.05644608	1.19607842
43.05644608	2.45098042
43.06060028	3.11764717
43.06461334	2.11764717
43.06873703	1.03921568
43.07289886	1.23529410
43.07702637	1.82352936
43.07702637	2.21568632
43.08095932	2.33333325
43.08512878	1.41176474
43.08923340	0.76470590
43.08923340	0.78431374
43.09336853	1.05882359
43.09736633	1.96078432
43.10160065	2.68627453
43.10160065	3.03921580
43.10565567	2.13725495
43.10968018	1.41176474
43.11391449	1.56862748
43.11784744	2.68627453
43.12203217	2.92156863
43.12203217	2.35294127
43.12614441	1.62745094
43.13031387	1.27450979
43.13438797	1.45098042
43.13438797	2.21568632
43.13840866	3.01960778
43.14248657	3.05882359
43.14663315	1.76470590
43.14663315	1.21568632
43.15059662	1.11764705
43.15477753	1.96078432
43.15885544	2.76470590
43.16295242	2.15686274
43.16706467	1.07843137
43.16706467	0.74509805
43.17110443	0.82352942
43.17522430	1.43137252
43.17943573	2.09803915
43.17943573	2.35294127
43.18349838	1.88235295
43.18774033	1.21568632
43.19160080	1.11764705
43.19160080	1.07843137
43.19580841	1.96078432
43.19990540	3.19607854
43.20404434	2.25490189
43.20803070	1.54901958
43.21213531	1.13725495
43.21213531	1.92156863
43.21624756	3.35294127
43.22040939	3.70588231
43.22449112	3.27450991
43.22449112	2.25490189
43.22859573	1.90196073
43.23259354	2.50980401
43.23677826	3.80392146
43.23677826	4.96078444
43.24072647	4.94117641
43.24485397	3.76470590
43.24906540	0.00000000
43.25318527	0.00000000
43.25722504	0.00000000
43.25722504	0.00000000
43.26129532	0.00000000
43.26544189	0.00000000
43.26953125	0.00000000
43.26953125	0.00000000
43.27362442	0.35294119
43.27760696	1.64705884
43.28176880	2.49019599
43.28176880	2.78431368
43.28588867	1.82352936
43.28992081	1.00000000
43.29413986	2.25490189
43.29811096	3.54901958
43.30228043	4.01960802
43.30228043	3.64705873
43.30641174	2.96078420
43.31048203	2.00000000
43.31460953	2.05882359
43.31460953	3.11764717
43.31858444	3.80392146
43.32276917	4.25490189
43.32688141	3.92156863
43.32688141	2.78431368
43.33087158	2.07843137
43.33497620	2.62745094
43.33915329	4.21568632
43.34321594	4.39215708
43.34737778	3.37254906
43.34737778	2.96078420
43.35134125	3.19607854
43.35552216	3.96078420
43.35959244	4.92156839
43.35959244	4.96078444
43.36371994	4.47058821
43.36772537	4.05882359
43.37189865	3.52941179
43.37189865	3.76470590
43.37595367	4.39215708
43.38009644	4.84313726
43.38421631	4.52941179
43.38827896	3.33333325
43.39236832	2.86274505
43.39236832	3.72549009
43.39645004	4.78431368
43.40061951	4.98039198
43.40463257	4.60784292
43.40463257	3.70588231
43.40877533	3.29411769
43.41286469	3.01960778
43.41693497	4.15686274
43.41693497	4.98039198
43.42102432	4.98039198
43.42508698	4.64705896
43.42927170	4.07843161
43.43342590	4.94117641
43.43755722	4.98039198
43.43755722	4.98039198
43.44166946	4.92156839
43.44561768	4.43137264
43.44975281	3.96078420
43.44975281	3.70588231
43.45390701	4.60784292
43.45789719	4.98039198
43.46196747	4.98039198
43.46196747	4.86274529
43.46611404	4.11764717
43.47030640	3.64705873
43.47424698	4.49019623
43.47835159	4.98039198
43.48258591	4.98039198
43.48258591	4.43137264
43.48662567	3.76470590
43.49073029	3.39215684
43.49470139	3.49019599
43.49470139	4.21568632
43.49885559	4.98039198
43.50300217	4.90196085
43.50711441	3.92156863
43.50711441	3.05882359
43.51114273	2.96078420
43.51524734	3.62745094
43.51937103	4.86274529
43.52351379	4.27450991
43.52760315	3.35294127
43.52760315	2.92156863
43.53161621	3.27450991
43.53575134	4.78431368
43.53985596	4.98039198
43.53985596	4.92156839
43.54394531	3.90196085
43.54793549	2.94117641
43.55208969	2.68627453
43.55208969	3.33333325
43.55621719	4.98039198
43.56039429	4.98039198
43.56442642	3.33333325
43.56857681	2.11764717
43.57265091	1.66666663
43.57265091	3.00000000
43.57679367	4.41176462
43.58088303	4.70588255
43.58486557	4.07843161
43.58486557	3.21568632
43.58908463	2.70588231
43.59314728	2.56862736
43.59727478	3.76470590
43.59727478	4.98039198
43.60129929	4.96078444
43.60544968	4.29411745
43.60959625	2.19607854
43.61372375	2.19607854
43.61782074	3.31372547
43.61782074	4.27450991
43.62186813	3.84313726
43.62589645	2.68627453
43.63013458	2.07843137
43.63013458	2.01960778
43.63428497	2.82352948
43.63816833	4.01960802
43.64226532	4.39215708
43.64226532	3.86274505
43.64641953	2.54901958
43.65050507	1.78431368
43.65463638	2.62745094
43.65859985	3.68627453
43.66273880	4.15686274
43.66273880	3.33333325
43.66685867	2.31372547
43.67087936	1.96078432
43.67496872	2.27450991
43.67496872	3.35294127
43.67910385	4.17647076
43.68322372	4.15686274
43.68735504	2.90196085
43.68735504	2.49019599
43.69140244	2.54901958
43.69565201	3.01960778
43.69964981	4.49019623
43.70381165	3.70588231
43.70793915	2.11764717
43.70793915	1.15686274
43.71193695	1.41176474
43.71604919	2.27450991
43.72018814	2.92156863
43.72018814	3.43137264
43.72429276	2.66666675
43.72831345	1.96078432
43.73242569	1.78431368
43.73242569	2.01960778
43.73653030	2.62745094
43.74074173	3.33333325
43.74483109	1.94117641
43.74888611	0.56862748
43.75286484	0.54901963
43.75286484	1.74509799
43.75696945	3.64705873
43.76101685	4.31372547
43.76512146	3.49019599
43.76512146	2.27450991
43.76926804	1.84313726
43.77336121	2.45098042
43.77749252	4.31372547
43.77749252	4.98039198
43.78162003	4.94117641
43.78564835	3.78431368
43.78977203	0.96078432
43.79389191	0.50980395
43.79805374	0.96078432
43.79805374	1.27450979
43.80194473	0.68627453
43.80612183	0.00000000
43.81029129	0.00000000
43.81029129	0.01960784
43.81427383	1.09803927
43.81840134	2.41176462
43.82262802	3.09803915
43.82262802	2.86274505
43.82666779	2.09803915
43.83071518	1.27450979
43.83479309	3.11764717
43.83886719	3.94117641
43.84300232	3.72549009
43.84300232	2.43137264
43.84707260	1.54901958
43.85113525	1.39215684
43.85527420	1.84313726
43.85527420	3.21568632
43.85933685	3.86274505
43.86344147	3.39215684
43.86760330	2.00000000
43.86760330	1.17647064
43.87160110	1.03921568
43.87578583	2.17647052
43.87990570	3.98039222
43.88405228	3.03921580
43.88817215	2.03921580
43.88817215	1.07843137
43.89219666	1.39215684
43.89618301	3.43137264
43.90029907	4.45098019
43.90029907	4.13725471
43.90458298	2.13725495
43.90866089	1.39215684
43.91258621	1.29411769
43.91258621	2.39215684
43.91669846	3.41176462
43.92087555	3.62745094
43.92481613	2.13725495
43.92896271	1.92156863
43.93308258	2.11764717
43.93308258	3.23529410
43.93732452	4.43137264
43.94120026	4.35294104
43.94541168	2.96078420
43.94541168	2.17647052
43.94945908	1.39215684
43.95366669	1.72549021
43.95773315	3.33333325
43.95773315	4.29411745
43.96171188	3.80392146
43.96588898	2.37254906
43.97005844	2.03921580
43.97414017	3.13725495
43.97823715	4.25490189
43.97823715	4.74509811
43.98224258	3.64705873
43.98636246	2.21568632
43.99049759	1.80392158
43.99049759	1.78431368
43.99463654	2.92156863
43.99856186	4.00000000
44.00276947	4.13725471
44.00276947	3.25490189
44.00685883	1.82352936
44.01103592	1.33333337
44.01500320	2.98039222
44.01919556	4.01960802
44.02324295	3.92156863
44.02324295	2.50980401
44.02736282	1.27450979
44.03131104	0.60784316
44.03562927	1.23529410
44.03562927	2.62745094
44.03959274	3.15686274
44.04376221	2.21568632
44.04782867	0.54901963
44.04782867	0.00000000
44.05189133	0.47058824
44.05600357	1.43137252
44.06005096	2.54901958
44.06427002	1.07843137
44.06827545	0.00000000
44.06827545	0.00000000
44.07239532	0.84313726
44.07651520	2.41176462
44.08064270	3.17647052
44.08064270	2.35294127
44.08464050	0.88235295
44.08873749	0.25490198
44.09292221	0.01960784
44.09292221	1.29411769
44.09696198	2.96078420
44.10105133	3.76470590
44.10510635	1.56862748
44.10929108	0.60784316
44.11329651	1.01960790
44.11329651	2.54901958
44.11747360	3.84313726
44.12166977	3.82352948
44.12565231	2.35294127
44.12565231	1.05882359
44.12980270	0.56862748
44.13382721	0.86274511
44.13810349	2.52941179
44.13810349	3.74509811
44.14205933	3.74509811
44.14616394	2.29411769
44.15031052	1.13725495
44.15443802	1.86274505
44.15842056	3.13725495
44.15842056	3.82352948
44.16266251	3.49019599
44.16679764	2.27450991
44.17090988	2.03921580
44.17090988	2.56862736
44.17474747	3.45098042
44.17889786	4.41176462
44.18297958	4.60784292
44.18297958	3.35294127
44.18714905	2.35294127
44.19124603	1.76470590
44.19515991	4.25490189
44.19939423	4.90196085
44.20354080	4.60784292
44.20354080	3.15686274
44.20761108	2.25490189
44.21157837	2.03921580
44.21570587	2.82352948
44.21570587	3.98039222
44.21989822	4.41176462
44.22399521	3.66666675
44.22810745	2.19607854
44.22810745	1.92156863
44.23214722	2.92156863
44.23632431	3.68627453
44.24038696	4.62745094
44.24444962	3.45098042
44.24862289	2.29411769
44.24862289	1.86274505
44.25264359	2.29411769
44.25672150	3.43137264
44.26089096	4.17647076
44.26089096	3.68627453
44.26493835	2.33333325
44.26899338	1.58823526
44.27313995	1.45098042
44.27313995	2.52941179
44.27726746	3.74509811
44.28136444	3.94117641
44.28532028	1.72549021
44.28968811	1.00000000
44.29358673	1.03921568
44.29358673	2.27450991
44.29777145	3.47058821
44.30171204	3.64705873
44.30583572	2.80392146
44.30583572	2.13725495
44.30995560	1.76470590
44.31412506	2.35294127
44.31834412	3.37254906
44.31834412	3.94117641
44.32227707	3.90196085
44.32641220	2.74509811
44.33053970	2.52941179
44.33470917	3.70588231
44.33860016	4.98039198
44.33860016	4.96078444
44.34275436	3.80392146
44.34685898	1.96078432
44.35101318	0.50980395
44.35101318	0.00000000
44.35500336	0.00000000
44.35913086	0.56862748
44.36327744	0.70588237
44.36327744	0.00000000
44.36731339	0.00000000
44.37158966	0.00000000
44.37567139	1.84313726
44.37961960	2.54901958
44.38373947	2.31372547
44.38373947	1.17647064
44.38791656	0.54901963
44.39189911	0.74509805
44.39598846	1.60784316
44.39598846	2.78431368
44.40010071	3.41176462
44.40423584	2.45098042
44.40836334	1.31372547
44.40836334	0.78431374
44.41234589	1.09803927
44.41644287	2.27450991
44.42060471	3.60784316
44.42469025	2.37254906
44.42873764	1.37254906
44.42873764	1.66666663
44.43281937	2.13725495
44.43701935	3.33333325
44.44111633	4.05882359
44.44111633	3.98039222
44.44510651	2.78431368
44.44923401	1.84313726
44.45336533	1.82352936
44.45336533	3.09803915
44.45755005	4.45098019
44.46157074	4.88235283
44.46555328	2.72549009
44.46973801	1.70588231
44.47383499	1.74509799
44.47383499	3.07843137
44.47798157	4.15686274
44.48195267	4.58823538
44.48608398	3.60784316
44.48608398	2.58823538
44.49031067	2.09803915
44.49436569	2.78431368
44.49847031	4.29411745
44.49847031	4.96078444
44.50260544	4.58823538
44.50661087	2.88235283
44.51071548	1.82352936
44.51485443	2.86274505
44.51885986	4.29411745
44.51885986	4.80392170
44.52296448	4.21568632
44.52706528	2.96078420
44.53118896	2.70588231
44.53118896	3.82352948
44.53526688	4.98039198
44.53934860	4.96078444
44.54346848	4.82352924
44.54346848	3.98039222
44.54757309	3.17647052
44.55174255	2.90196085
44.55572128	4.98039198
44.55985260	4.98039198
44.56397247	4.66666651
44.56397247	3.43137264
44.56809998	2.35294127
44.57210541	2.35294127
44.57623672	3.52941179
44.57623672	4.68627453
44.58060837	4.88235283
44.58445358	4.07843161
44.58859634	3.07843137
44.58859634	2.72549009
44.59259415	2.80392146
44.59672546	3.52941179
44.60085297	3.94117641
44.60498810	2.29411769
44.60897827	1.35294116
44.60897827	1.25490201
44.61318207	2.35294127
44.61722183	4.07843161
44.62134171	4.96078444
44.62134171	4.07843161
44.62536240	2.72549009
44.62958145	2.27450991
44.63355637	2.45098042
44.63355637	3.56862736
44.63777542	4.60784292
44.64171600	4.27450991
44.64584351	1.84313726
44.65006256	1.47058821
44.65417480	1.88235295
44.65417480	3.09803915
44.65823746	3.78431368
44.66222763	3.54901958
44.66638184	2.39215684
44.66638184	1.31372547
44.67046738	0.98039216
44.67459869	1.88235295
44.67871857	3.31372547
44.67871857	4.03921556
44.68270874	3.90196085
44.68684387	2.86274505
44.69094849	2.09803915
44.69496918	2.88235283
44.69905853	4.00000000
44.69905853	4.49019623
44.70322800	3.70588231
44.70735550	2.62745094
44.71146011	1.90196073
44.71146011	2.23529410
44.71559906	3.31372547
44.71967697	4.09803915
44.72372437	3.84313726
44.72372437	2.58823538
44.72785187	1.86274505
44.73181915	1.45098042
44.73603058	3.11764717
44.74010086	4.07843161
44.74428558	3.84313726
44.74428558	1.94117641
44.74820328	0.49019608
44.75234604	0.33333334
44.75658417	1.94117641
44.75658417	2.82352948
44.76057053	2.88235283
44.76467514	1.84313726
44.76894379	0.74509805
44.76894379	0.15686275
44.77293396	0.74509805
44.77698135	1.70588231
44.78110886	2.98039222
44.78510666	2.09803915
44.78922653	1.60784316
44.78922653	1.41176474
44.79333878	1.88235295
44.79747009	2.84313726
44.80157471	3.01960778
44.80157471	2.43137264
44.80559540	1.17647064
44.80970001	0.54901963
44.81382751	0.90196079
44.81382751	2.31372547
44.81793213	3.29411769
44.82197952	3.13725495
44.82610703	0.39215687
44.83022690	0.00000000
44.83436584	0.33333334
44.83436584	1.37254906
44.83836365	2.19607854
44.84273911	2.01960778
44.84653854	1.00000000
44.84653854	1.05882359
44.85069275	1.09803927
44.85480499	1.23529410
44.85880280	1.80392158
44.85880280	2.09803915
44.86289978	1.70588231
44.86706924	1.15686274
44.87120438	2.29411769
44.87519455	3.64705873
44.87932205	4.33333349
44.87932205	4.82352924
44.88343430	4.23529434
44.88757324	3.92156863
44.89169312	3.45098042
44.89169312	3.78431368
44.89569092	4.78431368
44.89976883	4.92156839
44.90397263	4.35294104
44.90397263	2.56862736
44.90814972	1.05882359
44.91209793	0.00000000
44.91617203	1.03921568
44.92034912	1.29411769
44.92443466	1.52941179
44.92443466	1.03921568
44.92856598	1.25490201
44.93255615	2.11764717
44.93674088	3.70588231
44.93674088	4.49019623
44.94084549	4.39215708
44.94499969	3.50980401
44.94901276	2.82352948
44.94901276	2.31372547
44.95314026	2.58823538
44.95722961	3.50980401
44.96137238	4.23529434
44.96529770	3.88235283
44.96963120	3.45098042
44.96963120	2.52941179
44.97362137	2.49019599
44.97775650	3.29411769
44.98184586	3.90196085
44.98184586	3.49019599
44.98584366	3.00000000
44.98999023	3.21568632
44.99410248	3.58823538
44.99410248	4.00000000
44.99827194	4.21568632
45.00223541	4.23529434
45.00636292	2.94117641
45.01044464	2.27450991
45.01457977	2.82352948
45.01457977	3.80392146
45.01861954	4.00000000
45.02270126	4.11764717
45.02685928	3.43137264
45.02685928	2.90196085
45.03095627	2.54901958
45.03510284	3.21568632
45.03915787	4.37254906
45.03915787	4.88235283
45.04323578	4.68627453
45.04729080	4.21568632
45.05146027	4.49019623
45.05558395	4.98039198
45.05955505	4.98039198
45.05955505	4.82352924
45.06370163	4.39215708
45.06782150	3.50980401
45.07199860	3.29411769
45.07199860	3.66666675
45.07598114	4.98039198
45.08016586	4.98039198
45.08422852	4.92156839
45.08422852	4.62745094
45.08837509	4.33333349
45.09238815	4.03921556
45.09659958	4.94117641
45.10057449	4.98039198
45.10473251	4.54901981
45.10473251	4.05882359
45.10870743	3.62745094
45.11281967	4.01960802
45.11693954	4.76470566
45.11693954	4.80392170
45.12115097	4.47058821
45.12513351	3.27450991
45.12916183	2.84313726
45.12916183	3.05882359
45.13338089	3.86274505
45.13755798	4.98039198
45.14164734	4.43137264
45.14562988	3.82352948
45.14970779	3.33333325
45.14970779	3.33333325
45.15389252	3.96078420
45.15798950	4.98039198
45.16215134	4.98039198
45.16215134	4.70588255
45.16613388	4.01960802
45.17023849	3.25490189
45.17437363	3.15686274
45.17437363	3.62745094
45.17850494	4.21568632
45.18254852	4.09803915
45.18662262	2.80392146
45.19068527	2.88235283
45.19489670	3.00000000
45.19489670	3.49019599
45.19885254	3.78431368
45.20304489	3.56862736
45.20709229	2.98039222
45.20709229	2.66666675
45.21123123	2.88235283
45.21538544	3.80392146
45.21937180	4.76470566
45.21937180	4.23529434
45.22341156	3.03921580
45.22763062	1.88235295
45.23167038	1.92156863
45.23572540	2.66666675
45.23983765	3.23529410
45.23983765	3.49019599
45.24394226	2.45098042
45.24804688	1.74509799
45.25218201	1.86274505
45.25218201	2.17647052
45.25619507	2.80392146
45.26036453	3.45098042
45.26449585	3.13725495
45.26449585	2.15686274
45.26858139	1.52941179
45.27261353	0.82352942
45.27667618	1.78431368
45.28086090	2.11764717
45.28494263	1.72549021
45.28494263	1.03921568
45.28902817	0.78431374
45.29310226	1.11764705
45.29722977	1.88235295
45.29722977	2.31372547
45.30133438	1.54901958
45.30534744	0.50980395
45.30957413	0.11764706
45.30957413	0.00000000
45.31362152	0.00000000
45.31779099	0.31372550
45.32192993	0.50980395
45.32587814	0.00000000
45.32998276	0.00000000
45.32998276	0.00000000
45.33416748	0.00000000
45.33828735	0.17647059
45.34234238	0.15686275
45.34234238	0.00000000
45.34631729	0.00000000
45.35043716	0.00000000
45.35461426	0.00000000
45.35461426	0.00000000
45.35858154	0.00000000
45.36270142	0.00000000
45.36685181	0.00000000
45.37101364	0.00000000
45.37503052	0.00000000
45.37503052	0.80392158
45.37907791	1.27450979
45.38325500	0.49019608
45.38738251	0.00000000
45.38738251	0.00000000
45.39152908	0.00000000
45.39560699	0.05882353
45.39962006	0.86274511
45.39962006	1.17647064
45.40376663	0.45098040
45.40781403	0.00000000
45.41205597	0.00000000
45.41601563	0.13725491
45.42017365	0.27450982
45.42017365	0.07843138
45.42426300	0.00000000
45.42842484	0.00000000
45.43259430	0.09803922
45.43259430	0.80392158
45.43669128	2.01960778
45.44063187	2.27450991
45.44476700	1.80392158
45.44476700	1.35294116
45.44870758	1.09803927
45.45286942	1.41176474
45.45698929	0.90196079
45.46106339	0.00000000
45.46526337	0.00000000
45.46526337	0.00000000
45.46925354	0.00000000
45.47335815	0.00000000
45.47760010	0.00000000
45.47760010	0.00000000
45.48160553	0.00000000
45.48564529	0.00000000
45.48965836	0.00000000
45.48965836	0.00000000
45.49384689	0.00000000
45.49798203	0.00000000
45.50206375	0.00000000
45.50605392	0.00000000
45.51021194	0.00000000
45.51021194	0.00000000
45.51431656	0.01960784
45.51852036	0.09803922
45.52263260	0.00000000
45.52263260	0.00000000
45.52659607	0.00000000
45.53070068	0.00000000
45.53480530	0.00000000
45.53480530	0.07843138
45.53903961	0.00000000
45.54297256	0.00000000
45.54705429	0.00000000
45.55116653	0.00000000
45.55533600	0.00000000
45.55533600	0.56862748
45.55930710	0.39215687
45.56347656	0.00000000
45.56755829	0.00000000
45.56755829	0.00000000
45.57180023	0.00000000
45.57566833	0.05882353
45.57984543	0.72549021
45.57984543	0.58823532
45.58397293	0.00000000
45.58811951	0.00000000
45.59225464	0.23529412
45.59626389	0.68627453
45.60033417	1.17647064
45.60033417	1.07843137
45.60449600	0.27450982
45.60860825	0.00000000
45.61261368	0.00000000
45.61261368	0.66666669
45.61674881	1.76470590
45.62103653	2.01960778
45.62503433	1.72549021
45.62503433	1.17647064
45.62899780	0.90196079
45.63310242	1.17647064
45.63731384	2.62745094
45.64138412	2.70588231
45.64545441	2.17647052
45.64545441	1.72549021
45.64955139	1.50980389
45.65355682	1.90196073
45.65766144	3.19607854
45.65766144	4.13725471
45.66184616	3.96078420
45.66582870	2.84313726
45.67000580	2.03921580
45.67000580	1.60784316
45.67408752	1.94117641
45.67825699	2.35294127
45.68238449	1.23529410
45.68641663	0.66666669
45.69059372	0.47058824
45.69059372	0.39215687
45.69469070	0.96078432
45.69872665	1.41176474
45.70272446	1.56862748
45.70272446	1.03921568
45.70687103	0.21568628
45.71096802	0.23529412
45.71516037	0.58823532
45.71516037	1.31372547
45.71911621	1.29411769
45.72326279	0.58823532
45.72740173	0.00000000
45.73153687	0.00000000
45.73568344	0.00000000
45.73568344	0.70588237
45.73960495	1.33333337
45.74371719	1.07843137
45.74787140	0.39215687
45.74787140	0.19607843
45.75195313	0.47058824
45.75597382	1.47058821
45.76008606	2.07843137
45.76008606	1.80392158
45.76422119	0.78431374
45.76834488	0.11764706
45.77246475	0.25490198
45.77659225	1.27450979
45.78065491	1.88235295
45.78065491	2.09803915
45.78471756	1.56862748
45.78874207	1.21568632
45.79292679	1.09803927
45.79292679	1.90196073
45.79696655	3.03921580
45.80108643	3.84313726
45.80520630	3.76470590
45.80520630	3.64705873
45.80921173	3.39215684
45.81331635	3.39215684
45.81744003	4.98039198
45.82155228	4.94117641
45.82568741	4.78431368
45.82568741	4.80392170
45.82970047	4.88235283
45.83380508	4.98039198
45.83796692	4.98039198
45.83796692	4.98039198
45.84207153	4.78431368
45.84605408	4.27450991
45.85018158	4.47058821
45.85018158	4.80392170
45.85431671	4.98039198
45.85842133	4.98039198
45.86251068	4.86274529
45.86655807	4.68627453
45.87071991	4.68627453
45.87071991	4.98039198
45.87483215	4.98039198
45.87899399	4.98039198
45.88296509	4.98039198
45.88296509	4.98039198
45.88708496	4.98039198
45.89122391	4.98039198
45.89534378	4.98039198
45.89534378	4.98039198
45.89931870	4.98039198
45.90359497	4.98039198
45.90758133	4.98039198
45.90758133	4.98039198
45.91170502	4.98039198
45.91578293	4.98039198
45.91578293	4.98039198
45.91982269	4.98039198
45.92391968	4.98039198
45.92810440	4.96078444
45.92810440	4.98039198
45.93220901	4.98039198
45.93621445	4.98039198
45.94034958	4.98039198
45.94034958	4.98039198
45.94444656	4.94117641
45.94857407	4.98039198
45.95268631	4.98039198
45.95666885	4.98039198
45.96078873	4.98039198
45.96078873	4.98039198
45.96495819	4.66666651
45.96903992	4.96078444
45.97306061	4.98039198
45.97306061	4.98039198
45.97725677	4.98039198
45.98135376	4.98039198
45.98544693	4.98039198
45.98544693	4.98039198
45.98955154	4.98039198
45.99359131	4.98039198
45.99770355	4.98039198
45.99770355	4.98039198
46.00183105	4.96078444
46.00594330	3.80392146
46.00594330	2.25490189
46.00996780	1.27450979
46.01408768	2.00000000
46.01822281	3.37254906
46.01822281	4.19607830
46.02236176	4.52941179
46.02635956	3.92156863
46.03060913	3.78431368
46.03060913	4.11764717
46.03464890	4.60784292
46.03878784	4.98039198
46.04291534	4.94117641
46.04291534	4.62745094
46.04685593	3.94117641
46.05095291	3.62745094
46.05095291	4.41176462
46.05508804	4.98039198
46.05906296	4.98039198
46.06319809	4.90196085
46.06319809	4.47058821
46.06727600	3.96078420
46.07144928	3.98039222
46.07554245	4.80392170
46.07554245	4.98039198
46.07964706	4.98039198
46.08375168	4.96078444
46.08779907	4.62745094
46.08779907	3.86274505
46.09188843	4.09803915
46.09604645	4.98039198
46.09604645	4.98039198
46.10001373	4.98039198
46.10417557	4.84313726
46.10826111	4.45098019
46.10826111	4.29411745
46.11242294	4.50980377
46.11651993	4.98039198
46.12054062	4.98039198
46.12054062	4.96078444
46.12467957	4.60784292
46.12882614	3.90196085
46.13291168	3.92156863
46.13291168	4.98039198
46.13694382	4.98039198
46.14104843	4.98039198
46.14104843	4.76470566
46.14516068	3.94117641
46.14914703	3.62745094
46.15332794	4.37254906
46.15332794	4.98039198
46.15744781	4.98039198
46.16156006	4.98039198
46.16567993	4.72549009
46.16567993	4.39215708
46.16972733	4.60784292
46.17380524	4.98039198
46.17792892	4.98039198
46.17792892	4.96078444
46.18209839	4.86274529
46.18621063	4.23529434
46.18621063	4.29411745
46.19015121	4.72549009
46.19430161	4.98039198
46.19849014	4.98039198
46.19849014	4.98039198
46.20261002	4.52941179
46.20656586	3.66666675
46.21069336	3.66666675
46.21069336	4.09803915
46.21484756	4.98039198
46.21900940	4.98039198
46.22305679	4.98039198
46.22305679	4.39215708
46.22707748	3.35294127
46.23117447	3.47058821
46.23117447	3.98039222
46.23532867	4.98039198
46.23936844	4.94117641
46.24359512	4.82352924
46.24359512	3.84313726
46.24756622	3.37254906
46.25179291	3.21568632
46.25583267	4.33333349
46.25583267	4.98039198
46.25983047	4.82352924
46.26396942	3.86274505
46.26808167	2.88235283
46.26808167	2.50980401
46.27220154	2.50980401
46.27633667	3.21568632
46.27633667	3.64705873
46.28031921	3.60784316
46.28442383	2.90196085
46.28859329	2.49019599
46.28859329	2.25490189
46.29254150	2.96078420
46.29671860	4.09803915
46.30083084	4.94117641
46.30083084	4.35294104
46.30504227	3.05882359
46.30908203	2.50980401
46.31307983	2.43137264
46.31307983	2.88235283
46.31719971	4.01960802
46.32131958	4.74509811
46.32131958	3.96078420
46.32544708	2.56862736
46.32961655	1.94117641
46.33354950	1.86274505
46.33354950	2.80392146
46.33771133	3.49019599
46.34182358	3.78431368
46.34592819	2.35294127
46.34592819	0.84313726
46.34993362	0.50980395
46.35410309	1.11764705
46.35822678	2.92156863
46.35822678	3.88235283
46.36231232	3.82352948
46.36639404	2.78431368
46.36639404	1.41176474
46.37062073	1.31372547
46.37469101	2.43137264
46.37873077	3.49019599
46.37873077	3.33333325
46.38264465	2.62745094
46.38679886	2.11764717
46.39088821	1.39215684
46.39088821	1.39215684
46.39504623	2.31372547
46.39923477	3.11764717
46.40323257	3.45098042
46.40323257	2.31372547
46.40736008	1.03921568
46.41150665	1.21568632
46.41150665	2.19607854
46.41561127	3.27450991
46.41959000	3.64705873
46.42372894	3.41176462
46.42372894	2.21568632
46.42792130	1.31372547
46.43206024	1.17647064
46.43613052	2.37254906
46.43613052	3.72549009
46.44020081	4.37254906
46.44421768	3.70588231
46.44836044	2.41176462
46.44836044	1.98039210
46.45262909	2.41176462
46.45665359	3.68627453
46.45665359	4.78431368
46.46055984	4.86274529
46.46468735	3.31372547
46.46879959	1.84313726
46.46879959	1.47058821
46.47280502	2.09803915
46.47690964	3.33333325
46.48107910	4.05882359
46.48107910	3.64705873
46.48527527	2.45098042
46.48939514	1.96078432
46.49335098	2.21568632
46.49335098	3.58823538
46.49762726	4.80392170
46.50157547	4.94117641
46.50157547	4.07843161
46.50577164	2.66666675
46.50976944	1.80392158
46.51385498	1.94117641
46.51385498	2.98039222
46.51799393	4.25490189
46.52214050	4.49019623
46.52628326	3.50980401
46.52628326	3.29411769
46.53023911	3.17647052
46.53434372	3.31372547
46.53849792	4.72549009
46.53849792	4.98039198
46.54264450	4.86274529
46.54663086	4.17647076
46.54663086	3.60784316
46.55080414	3.62745094
46.55489731	4.00000000
46.55910110	4.27450991
46.55910110	3.64705873
46.56302643	2.15686274
46.56713867	0.41176471
46.57133102	0.00000000
46.57133102	0.52941179
46.57535553	1.45098042
46.57935333	2.29411769
46.58362961	2.47058821
46.58362961	1.92156863
46.58765793	1.60784316
46.59167862	1.72549021
46.59167862	2.80392146
46.59581757	4.13725471
46.59978104	4.74509811
46.60402679	4.41176462
46.60402679	3.66666675
46.60808945	2.92156863
46.61220932	2.41176462
46.61637878	3.35294127
46.61637878	4.43137264
46.62039185	4.68627453
46.62443924	3.64705873
46.62861633	2.25490189
46.62861633	1.96078432
46.63271332	2.78431368
46.63681030	3.98039222
46.63681030	4.72549009
46.64082336	4.35294104
46.64496231	3.07843137
46.64908981	2.31372547
46.64908981	2.15686274
46.65312195	2.78431368
46.65723419	3.84313726
46.66131973	4.60784292
46.66131973	4.19607830
46.66547394	2.96078420
46.66963577	2.54901958
46.67359161	2.60784316
46.67359161	3.00000000
46.67774582	4.07843161
46.68179321	4.31372547
46.68179321	3.64705873
46.68597794	2.66666675
46.68991089	2.09803915
46.69409561	2.09803915
46.69409561	3.29411769
46.69820786	4.31372547
46.70231247	4.66666651
46.70644379	3.70588231
46.70644379	2.56862736
46.71053696	2.62745094
46.71455383	3.35294127
46.71866608	4.03921556
46.71866608	4.80392170
46.72285080	4.49019623
46.72686386	3.47058821
46.72686386	2.82352948
46.73097610	2.92156863
46.73506546	3.74509811
46.73922729	4.88235283
46.73922729	4.98039198
46.74327469	4.52941179
46.74734497	4.09803915
46.75158691	3.76470590
46.75158691	4.11764717
46.75561905	4.98039198
46.75970840	4.96078444
46.76372147	4.72549009
46.76372147	3.74509811
46.76780701	3.54901958
46.77195358	3.50980401
46.77195358	3.78431368
46.77608109	4.72549009
46.78007126	4.98039198
46.78418350	4.47058821
46.78418350	3.27450991
46.78838730	3.11764717
46.79243469	3.35294127
46.79656982	3.68627453
46.79656982	4.98039198
46.80060959	4.96078444
46.80474472	4.19607830
46.80888367	2.50980401
46.80888367	1.62745094
46.81293106	1.88235295
46.81693649	3.45098042
46.81693649	4.49019623
46.82104111	4.37254906
46.82516098	3.23529410
46.82935333	2.37254906
46.82935333	1.96078432
46.83332825	2.58823538
46.83759689	3.58823538
46.84156036	3.86274505
46.84156036	3.33333325
46.84569168	2.33333325
46.84967804	1.82352936
46.85379028	2.25490189
46.85379028	2.98039222
46.85798645	3.94117641
46.86211395	4.45098019
46.86211395	3.80392146
46.86621094	3.39215684
46.87020874	2.78431368
46.87429810	2.74509811
46.87429810	3.86274505
46.87841034	4.64705896
46.88260269	4.68627453
46.88673019	3.25490189
46.88673019	2.01960778
46.89067078	1.47058821
46.89483261	1.98039210
46.89892197	3.00000000
46.89892197	3.74509811
46.90308380	3.52941179
46.90719604	2.47058821
46.90719604	1.92156863
46.91117859	2.27450991
46.91526413	3.27450991
46.91951752	3.86274505
46.91951752	4.05882359
46.92362213	3.03921580
46.92762756	2.03921580
46.93170547	1.56862748
46.93170547	2.07843137
46.93585205	3.50980401
46.93985748	4.60784292
46.94393539	4.45098019
46.94393539	2.80392146
46.94810486	1.64705884
46.95222855	1.60784316
46.95222855	2.56862736
46.95631409	3.45098042
46.96033859	3.86274505
46.96457291	3.35294127
46.96457291	2.49019599
46.96852875	1.80392158
46.97272491	1.62745094
46.97679520	2.54901958
46.97679520	3.49019599
46.98081589	3.43137264
46.98497772	2.37254906
46.98913956	1.82352936
46.98913956	1.82352936
46.99313736	2.39215684
46.99718475	3.54901958
46.99718475	4.15686274
47.00133133	4.23529434
47.00548935	3.25490189
47.00955582	2.62745094
47.00955582	2.00000000
47.01364136	2.29411769
47.01767349	3.39215684
47.02184296	4.03921556
47.02184296	3.62745094
47.02591324	2.68627453
47.02996826	2.15686274
47.03407288	2.17647052
47.03407288	3.05882359
47.03823471	4.31372547
47.04235458	4.21568632
47.04235458	2.86274505
47.04652405	1.78431368
47.05065536	1.72549021
47.05462646	2.17647052
47.05462646	3.35294127
47.05873871	4.13725471
47.06284332	4.07843161
47.06695557	2.82352948
47.06695557	1.64705884
47.07096100	1.74509799
47.07508087	2.68627453
47.07916260	3.70588231
47.07916260	4.03921556
47.08324814	3.72549009
47.08732986	3.17647052
47.08732986	3.23529410
47.09143448	3.56862736
47.09555435	4.86274529
47.09973145	4.98039198
47.09973145	4.98039198
47.10372162	4.49019623
47.10781860	3.11764717
47.11200333	1.58823526
47.11200333	1.03921568
47.11614990	1.01960790
47.12014008	1.19607842
47.12422562	0.96078432
47.12422562	0.23529412
47.12830734	0.00000000
47.13245010	0.00000000
47.13245010	1.03921568
47.13667679	2.52941179
47.14055252	3.60784316
47.14472961	3.35294127
47.14472961	2.35294127
47.14881134	1.94117641
47.15298080	2.39215684
47.15701675	3.39215684
47.15701675	4.25490189
47.16106415	4.37254906
47.16517639	3.01960778
47.16936493	2.00000000
47.16936493	1.80392158
47.17334366	2.54901958
47.17765427	3.66666675
47.17765427	4.35294104
47.18155289	4.29411745
47.18574142	3.45098042
47.18981934	3.01960778
47.18981934	2.68627453
47.19380188	3.58823538
47.19795227	4.96078444
47.20209885	4.78431368
47.20209885	3.66666675
47.20621872	2.58823538
47.21018600	1.78431368
47.21432877	1.80392158
47.21432877	3.01960778
47.21841812	4.09803915
47.22259521	4.39215708
47.22259521	3.64705873
47.22660828	2.76470590
47.23076248	2.56862736
47.23486710	3.07843137
47.23486710	3.92156863
47.23897171	4.76470566
47.24309921	4.52941179
47.24710464	3.54901958
47.24710464	2.88235283
47.25124359	2.82352948
47.25532913	3.41176462
47.25945282	4.05882359
47.25945282	4.62745094
47.26360321	4.31372547
47.26758575	3.39215684
47.26758575	3.05882359
47.27174759	3.21568632
47.27582550	3.80392146
47.27995682	4.33333349
47.27995682	4.39215708
47.28394699	3.70588231
47.28809738	3.11764717
47.29220963	3.07843137
47.29220963	3.82352948
47.29691315	4.86274529
47.30035400	4.98039198
47.30460739	4.84313726
47.30460739	3.64705873
47.30861282	2.96078420
47.31267548	3.07843137
47.31267548	4.27450991
47.31673050	4.98039198
47.32092285	4.86274529
47.32490540	3.92156863
47.32490540	3.09803915
47.32911682	3.29411769
47.33321381	3.49019599
47.33720016	4.15686274
47.33720016	4.45098019
47.34127426	4.56862736
47.34544373	3.47058821
47.34962845	2.33333325
47.34962845	1.64705884
47.35364151	1.96078432
47.35771561	2.94117641
47.35771561	3.52941179
47.36186600	3.21568632
47.36597061	1.90196073
47.37010956	1.15686274
47.37010956	1.11764705
47.37412262	1.49019611
47.37818527	2.45098042
47.38235474	2.92156863
47.38235474	2.47058821
47.38649368	2.00000000
47.39060593	1.76470590
47.39459610	1.70588231
47.39459610	2.43137264
47.39879608	3.17647052
47.40285110	3.29411769
47.40285110	2.60784316
47.40685654	1.64705884
47.41093826	1.29411769
47.41509247	1.56862748
47.41509247	2.60784316
47.41918564	2.86274505
47.42339706	2.80392146
47.42738724	1.98039210
47.42738724	1.54901958
47.43145752	1.43137252
47.43554688	1.98039210
47.43973923	2.66666675
47.43973923	2.84313726
47.44374847	1.60784316
47.44782639	0.35294119
47.44782639	0.39215687
47.45192337	0.96078432
47.45605850	1.90196073
47.46020508	3.03921580
47.46020508	3.37254906
47.46426010	2.27450991
47.46830750	1.56862748
47.47241974	1.00000000
47.47241974	1.68627453
47.47658920	2.94117641
47.48057938	2.78431368
47.48469162	2.21568632
47.48469162	1.29411769
47.48883438	0.64705884
47.49298859	0.64705884
47.49298859	1.21568632
47.49696350	2.49019599
47.50113297	3.33333325
47.50525284	2.45098042
47.50525284	1.37254906
47.50927353	1.25490201
47.51346207	1.58823526
47.51753235	2.11764717
47.51753235	3.03921580
47.52157211	2.52941179
47.52566528	1.33333337
47.52984619	0.52941179
47.52984619	0.64705884
47.53377533	1.58823526
47.53801346	2.90196085
47.53801346	3.62745094
47.54211807	3.19607854
47.54626846	2.07843137
47.55039978	1.50980389
47.55039978	1.47058821
47.55437088	2.35294127
47.55850983	3.49019599
47.56265259	3.49019599
47.56265259	2.41176462
47.56678391	1.33333337
47.57079697	1.09803927
47.57488251	1.52941179
47.57488251	2.13725495
47.57901382	2.52941179
47.58313370	2.37254906
47.58313370	1.66666663
47.58717346	0.86274511
47.59137344	0.56862748
47.59535599	1.00000000
47.59535599	1.98039210
47.59956741	2.21568632
47.60363007	1.96078432
47.60761261	0.84313726
47.60761261	0.07843138
47.61174011	0.11764706
47.61585999	1.37254906
47.61996460	2.41176462
47.61996460	2.54901958
47.62392807	1.15686274
47.62812424	0.21568628
47.62812424	0.00000000
47.63225937	0.25490198
47.63637161	1.70588231
47.64046860	2.60784316
47.64046860	2.56862736
47.64458084	2.03921580
47.64860535	1.72549021
47.65274811	1.86274505
47.65274811	3.11764717
47.65688705	4.58823538
47.66082764	4.66666651
47.66491318	3.54901958
47.66491318	1.58823526
47.66909409	0.00000000
47.67324448	0.00000000
47.67324448	0.05882353
47.67721176	0.19607843
47.68137360	0.00000000
47.68559265	0.00000000
47.68559265	0.00000000
47.68960571	0.00000000
47.69371033	0.00000000
47.69777298	0.90196079
47.69777298	1.76470590
47.70204926	1.29411769
47.70596313	0.00000000
47.71006012	0.00000000
47.71006012	0.00000000
47.71412277	0.62745100
47.71820450	1.82352936
47.71820450	2.50980401
47.72229004	2.07843137
47.72645950	0.70588237
47.73062134	0.09803922
47.73062134	0.00000000
47.73456955	0.47058824
47.73873138	1.76470590
47.74286270	2.05882359
47.74286270	1.15686274
47.74698257	0.39215687
47.75098038	0.00000000
47.75510025	0.45098040
47.75510025	1.60784316
47.75916290	1.90196073
47.76334000	0.98039216
47.76334000	0.00000000
47.76726532	0.00000000
47.77159882	0.00000000
47.77554703	0.84313726
47.77554703	2.00000000
47.77967453	2.52941179
47.78367233	2.41176462
47.78778458	0.88235295
47.78778458	0.13725491
47.79200363	0.35294119
47.79610825	1.31372547
47.80018234	2.35294127
47.80018234	2.43137264
47.80422592	1.09803927
47.80833054	0.00000000
47.80833054	0.03921569
47.81251144	0.72549021
47.81655502	1.70588231
47.82074356	2.29411769
47.82074356	2.05882359
47.82469177	0.78431374
47.82886124	0.00000000
47.83302307	0.00000000
47.83302307	0.74509805
47.83700562	2.13725495
47.84114075	3.11764717
47.84518051	2.90196085
47.84518051	1.90196073
47.84929276	1.37254906
47.85351944	1.13725495
47.85351944	2.03921580
47.85764694	2.54901958
47.86165237	2.62745094
47.86573410	1.35294116
47.86573410	0.66666669
47.86989594	0.78431374
47.87380981	1.41176474
47.87801361	2.13725495
47.87801361	2.52941179
47.88214111	2.00000000
47.88621140	0.39215687
47.89034271	0.00000000
47.89034271	0.00000000
47.89432144	0.60784316
47.89859772	1.52941179
47.89859772	1.90196073
47.90259552	1.00000000
47.90670013	0.00000000
47.91086960	0.00000000
47.91086960	0.00000000
47.91491699	0.76470590
47.91901398	0.98039216
47.92307663	0.90196079
47.92307663	0.00000000
47.92711639	0.00000000
47.93119431	0.00000000
47.93532562	0.07843138
47.93532562	1.52941179
47.93943787	1.52941179
47.94358063	0.35294119
47.94358063	0.00000000
47.94765472	0.00000000
47.95171738	0.00000000
47.95582962	0.25490198
47.95582962	1.03921568
47.95998383	0.86274511
47.96394730	0.03921569
47.96806717	0.00000000
47.96806717	0.00000000
47.97224426	0.19607843
47.97628403	1.19607842
47.98043823	2.07843137
47.98043823	2.13725495
47.98455048	1.45098042
47.98854828	0.19607843
47.98854828	0.00000000
47.99267578	0.01960784
47.99678802	1.05882359
48.00094986	1.60784316
48.00094986	1.13725495
48.00493240	0.05882353
48.00900269	0.00000000
48.01312256	0.00000000
48.01312256	0.41176471
48.01716232	1.47058821
48.02130890	1.88235295
48.02550888	1.45098042
48.02550888	0.33333334
48.02956390	0.00000000
48.03372574	0.13725491
48.03768158	1.50980389
48.04176331	1.82352936
48.04591751	0.98039216
48.04591751	0.01960784
48.05000305	0.00000000
48.05405807	0.19607843
48.05812073	1.74509799
48.05812073	2.31372547
48.06228256	1.60784316
48.06637955	0.37254903
48.07055664	0.00000000
48.07055664	0.00000000
48.07450485	0.47058824
48.07861710	1.41176474
48.08274078	1.19607842
48.08694839	0.49019608
48.09102249	0.00000000
48.09102249	0.17647059
48.09501266	1.35294116
48.09922791	2.21568632
48.10335159	2.41176462
48.10335159	1.31372547
48.10731506	0.50980395
48.11149979	0.43137255
48.11554718	0.74509805
48.11554718	1.52941179
48.11968613	2.11764717
48.12374878	1.86274505
48.12776184	0.90196079
48.13192368	0.41176471
48.13605118	1.41176474
48.13605118	2.64705873
48.14012527	3.27450991
48.14415359	2.70588231
48.14829254	1.62745094
48.14829254	0.74509805
48.15242004	0.66666669
48.15650940	1.76470590
48.16065979	2.76470590
48.16065979	3.07843137
48.16475677	2.50980401
48.16878128	2.01960778
48.17290878	2.64705873
48.17705536	3.96078420
48.18119049	4.94117641
48.18119049	4.66666651
48.18525314	3.52941179
48.18929291	3.01960778
48.19337845	3.11764717
48.19337845	4.54901981
48.19751740	4.98039198
48.20152283	4.98039198
48.20569992	4.92156839
48.20569992	4.56862736
48.20976257	4.27450991
48.21392441	3.88235283
48.21791458	3.13725495
48.22204590	2.52941179
48.22614670	1.45098042
48.22614670	1.15686274
48.23030853	1.54901958
48.23434067	2.19607854
48.23859024	3.58823538
48.23859024	4.54901981
48.24254227	4.58823538
48.24671936	4.05882359
48.25083923	3.76470590
48.25083923	4.41176462
48.25484467	4.98039198
48.25895691	4.98039198
48.26311874	4.76470566
48.26718140	3.82352948
48.27118683	3.27450991
48.27118683	3.60784316
48.27531815	4.72549009
48.27941132	4.98039198
48.28355026	4.98039198
48.28355026	4.84313726
48.28756332	4.78431368
48.29163361	4.88235283
48.29578781	4.98039198
48.29578781	4.98039198
48.29989243	4.98039198
48.30408859	4.96078444
48.30804443	4.98039198
48.31217194	4.98039198
48.31629181	4.98039198
48.31629181	4.98039198
48.32048035	4.98039198
48.32462311	4.78431368
48.32860565	4.45098019
48.32860565	4.15686274
48.33271790	4.86274529
48.33683014	4.98039198
48.34089279	4.98039198
48.34089279	4.96078444
48.34494781	4.80392170
48.34904480	4.84313726
48.35322952	4.98039198
48.35731888	4.98039198
48.36132431	4.98039198
48.36132431	4.78431368
48.36542892	4.45098019
48.36957550	4.72549009
48.37372589	4.64705896
48.37372589	4.98039198
48.37787247	4.98039198
48.38186264	4.94117641
48.38598251	4.54901981
48.38598251	4.21568632
48.39012909	4.29411745
48.39425659	4.76470566
48.39823914	4.98039198
48.40237427	4.98039198
48.40648651	4.84313726
48.40648651	4.39215708
48.41065598	4.19607830
48.41463089	4.76470566
48.41874313	4.98039198
48.41874313	4.98039198
48.42292023	4.88235283
48.42705536	4.31372547
48.43123627	3.80392146
48.43123627	3.92156863
48.43513489	4.78431368
48.43923187	4.92156839
48.44339371	4.09803915
48.44752884	3.33333325
48.45168304	2.84313726
48.45168304	2.98039222
48.45568085	3.78431368
48.45980072	4.11764717
48.46391296	3.64705873
48.46391296	2.19607854
48.46799088	1.15686274
48.47200012	0.98039216
48.47611237	1.82352936
48.47611237	2.80392146
48.48020554	3.27450991
48.48440933	2.84313726
48.48840714	1.39215684
48.49253464	1.66666663
48.49665451	2.82352948
48.49665451	4.19607830
48.50072098	4.62745094
48.50479126	4.50980377
48.50890350	4.86274529
48.50890350	4.98039198
48.51303101	4.98039198
48.51718521	4.98039198
48.52131271	4.98039198
48.52131271	4.96078444
48.52528000	4.88235283
48.52943420	4.98039198
48.53356171	4.98039198
48.53773117	4.98039198
48.54177856	4.98039198
48.54177856	4.33333349
48.54580688	3.25490189
48.54993057	2.58823538
48.55405807	2.19607854
48.55405807	3.15686274
48.55804062	3.80392146
48.56217575	3.60784316
48.56627274	2.92156863
48.56627274	1.80392158
48.57041550	1.58823526
48.57450485	1.54901958
48.57863235	2.60784316
48.58266449	2.27450991
48.58682632	1.49019611
48.58682632	1.37254906
48.59093094	1.23529410
48.59490204	1.49019611
48.59903336	1.94117641
48.59903336	2.09803915
48.60316849	1.76470590
48.60731506	1.39215684
48.61142731	1.54901958
48.61142731	1.96078432
48.61539841	2.88235283
48.61953735	2.72549009
48.62366486	1.37254906
48.62780380	0.52941179
48.63178253	0.49019608
48.63178253	0.27450982
48.63595200	0.66666669
48.63998413	1.56862748
48.64415359	1.35294116
48.64415359	0.98039216
48.64808655	0.56862748
48.65227127	0.13725491
48.65642548	0.60784316
48.65642548	1.19607842
48.66055298	1.72549021
48.66462326	1.09803927
48.66862106	0.00000000
48.67276001	0.00000000
48.67692947	0.70588237
48.67692947	1.41176474
48.68104935	1.07843137
48.68503189	0.15686275
48.68915939	0.00000000
48.68915939	0.00000000
48.69327927	0.00000000
48.69742584	0.33333334
48.70149612	0.82352942
48.70149612	1.03921568
48.70568466	0.21568628
48.70963287	0.00000000
48.71380234	1.49019611
48.71792984	2.49019599
48.72190475	2.31372547
48.72190475	1.68627453
48.72603226	1.19607842
48.73017883	1.23529410
48.73424911	1.56862748
48.73424911	2.62745094
48.73828125	3.15686274
48.74233627	3.72549009
48.74653625	3.54901958
48.74653625	3.15686274
48.75067520	3.37254906
48.75480270	3.90196085
48.75877762	2.76470590
48.76291275	1.80392158
48.76700211	0.00000000
48.76700211	0.00000000
48.77117920	0.00000000
48.77509308	0.00000000
48.77926254	0.00000000
48.77926254	0.41176471
48.78340912	0.96078432
48.78755569	1.13725495
48.79167557	0.66666669
48.79167557	0.29411766
48.79566574	1.00000000
48.79978561	1.72549021
48.80397797	0.78431374
48.80802536	0.37254903
48.81203079	0.27450982
48.81203079	0.68627453
48.81616211	1.39215684
48.82030487	1.21568632
48.82442474	0.82352942
48.82442474	0.00000000
48.82840729	0.00000000
48.83246994	0.00000000
48.83665085	0.23529412
48.83665085	1.17647064
48.84077835	1.52941179
48.84493256	0.84313726
48.84889603	0.00000000
48.85299301	0.00000000
48.85715485	0.00000000
48.85715485	0.35294119
48.86129761	0.45098040
48.86535263	0.00000000
48.86938477	0.00000000
48.86938477	0.00000000
48.87348175	0.00000000
48.87767410	0.00000000
48.88180161	0.00000000
48.88180161	0.00000000
48.88573456	0.00000000
48.88993073	0.00000000
48.89405060	0.33333334
48.89817810	1.52941179
48.90211868	2.15686274
48.90211868	1.86274505
48.90631485	1.03921568
48.91039276	0.19607843
48.91454697	0.07843138
48.91454697	1.35294116
48.91868210	1.92156863
48.92265701	1.64705884
48.92678452	1.00000000
48.92678452	0.56862748
48.93092346	0.33333334
48.93491364	0.00000000
48.93902588	0.37254903
48.94306183	0.31372550
48.94725037	0.11764706
48.94725037	0.00000000
48.95126343	0.00000000
48.95536804	0.00000000
48.95959473	0.00000000
48.95959473	0.00000000
48.96362686	0.00000000
48.96772766	0.00000000
48.97173691	0.00000000
48.97173691	0.00000000
48.97587967	0.00000000
48.97998428	0.00000000
48.98415375	0.00000000
48.98818588	0.00000000
48.99224091	0.00000000
48.99224091	0.00000000
48.99641037	0.00000000
49.00053024	0.00000000
49.00464249	0.00000000
49.00464249	0.00000000
49.00863266	0.00000000
49.01274490	0.00000000
49.01687241	0.00000000
49.01687241	0.00000000
49.02104187	0.00000000
49.02501678	0.00000000
49.02910233	0.00000000
49.03314972	0.00000000
49.03732681	0.00000000
49.03732681	0.00000000
49.04134369	0.00000000
49.04551315	0.00000000
49.04956818	0.00000000
49.04956818	0.00000000
49.05370331	0.00000000
49.05779266	0.00000000
49.06183243	0.00000000
49.06183243	0.00000000
49.06594467	0.00000000
49.07004547	0.00000000
49.07420731	0.00000000
49.07818222	0.00000000
49.08229446	0.00000000
49.08229446	0.00000000
49.08644104	0.00000000
49.09056854	0.00000000
49.09468079	0.00000000
49.09468079	0.00000000
49.09868622	0.00000000
49.10289764	0.00000000
49.10696030	0.00000000
49.10696030	0.00000000
49.11106491	0.00000000
49.11505508	0.00000000
49.11922455	0.00000000
49.12331009	0.00000000
49.12747192	0.00000000
49.12747192	0.00000000
49.13157654	0.00000000
49.13556671	0.00000000
49.13969421	0.37254903
49.13969421	0.52941179
49.14381790	0.00000000
49.14800262	0.00000000
49.15198517	0.00000000
49.15198517	0.00000000
49.15611267	0.25490198
49.16019058	0.47058824
49.16433716	0.05882353
49.16830063	0.00000000
49.17253876	0.00000000
49.17253876	0.27450982
49.17659378	0.88235295
49.18067169	0.45098040
49.18482590	0.00000000
49.18482590	0.00000000
49.18908691	0.00000000
49.19288635	0.50980395
49.19707108	1.43137252
49.19707108	2.07843137
49.20125961	1.70588231
49.20528030	0.56862748
49.20937729	0.00000000
49.21348190	0.00000000
49.21769333	0.00000000
49.21769333	0.31372550
49.22167969	0.49019608
49.22579193	0.00000000
49.22989655	0.00000000
49.22989655	0.00000000
49.23395920	0.07843138
49.23814774	0.56862748
49.24210358	0.45098040
49.24210358	0.90196079
49.24621582	1.13725495
49.25031281	0.41176471
49.25443268	0.00000000
49.25856018	0.03921569
49.26255035	0.62745100
49.26255035	0.41176471
49.26666260	0.00000000
49.27082443	0.11764706
49.27486420	0.86274511
49.27486420	1.49019611
49.27892685	1.60784316
49.28310394	1.50980389
49.28722382	1.03921568
49.28722382	0.62745100
49.29131317	0.68627453
49.29527664	1.17647064
49.29953766	3.52941179
49.30357742	4.13725471
49.30769730	2.33333325
49.30769730	0.84313726
49.31163025	0.00000000
49.31578445	0.00000000
49.31999969	0.00000000
49.31999969	0.00000000
49.32402420	0.00000000
49.32807922	0.00000000
49.33223343	0.00000000
49.33223343	0.00000000
49.33633804	0.00000000
49.34046555	0.23529412
49.34461212	0.29411766
49.34857559	0.05882353
49.35272980	0.00000000
49.35272980	0.00000000
49.35678482	0.52941179
49.36090469	1.17647064
49.36503983	0.90196079
49.36503983	0.54901963
49.36907959	0.52941179
49.37319946	0.47058824
49.37725449	0.60784316
49.37725449	0.50980395
49.38128662	0.00000000
49.38551331	0.00000000
49.38958359	0.00000000
49.39374542	0.03921569
49.39787292	0.54901963
49.39787292	0.62745100
49.40184784	0.41176471
49.40596008	0.15686275
49.41003799	0.00000000
49.41003799	0.00000000
49.41415405	0.00000000
49.41819763	1.00000000
49.42230225	1.66666663
49.42230225	1.27450979
49.42637634	0.00000000
49.43048859	0.00000000
49.43473816	0.00000000
49.43870544	0.01960784
49.44282532	0.58823532
49.44282532	0.00000000
49.44701767	0.00000000
49.45112228	0.00000000
49.45526123	0.00000000
49.45526123	0.33333334
49.45924759	0.66666669
49.46335220	0.86274511
49.46740723	0.00000000
49.46740723	0.00000000
49.47156906	0.00000000
49.47550964	0.00000000
49.47967911	1.13725495
49.48377609	0.78431374
49.48795319	0.11764706
49.48795319	0.00000000
49.49190140	0.00000000
49.49603271	0.31372550
49.50015259	0.74509805
49.50015259	0.64705884
49.50432968	0.00000000
49.50831223	0.00000000
49.51261902	0.00000000
49.51261902	0.00000000
49.51660156	0.58823532
49.52077866	0.70588237
49.52486801	0.00000000
49.52884674	0.00000000
49.53297043	0.00000000
49.53297043	0.00000000
49.53711319	0.00000000
49.54119492	0.00000000
49.54530716	0.00000000
49.54530716	0.00000000
49.54932022	0.00000000
49.55347443	0.00000000
49.55762863	0.00000000
49.55762863	0.00000000
49.56155014	0.00000000
49.56566238	0.00000000
49.56986618	0.00000000
49.57392883	0.00000000
49.57809067	0.00000000
49.57809067	0.00000000
49.58209610	0.00000000
49.58620834	0.00000000
49.59032822	0.00000000
49.59032822	0.00000000
49.59443283	0.00000000
49.59856415	0.00000000
49.60256958	0.00000000
49.60256958	0.00000000
49.60670471	0.00000000
49.61080170	0.00000000
49.61489868	0.00000000
49.61890411	0.00000000
49.62303925	0.00000000
49.62303925	0.00000000
49.62719345	0.00000000
49.63137054	0.00000000
49.63540268	0.00000000
49.63540268	0.00000000
49.63958740	0.00000000
49.64360046	0.00000000
49.64773178	0.00000000
49.64773178	0.00000000
49.65167999	0.00000000
49.65584183	0.00000000
49.65991974	0.00000000
49.66408157	0.00000000
49.66814423	0.00000000
49.66814423	0.00000000
49.67226410	0.00000000
49.67629623	0.00000000
49.68040848	0.00000000
49.68040848	0.00000000
49.68456268	0.00000000
49.68853378	0.00000000
49.69270325	0.00000000
49.69270325	0.00000000
49.69684982	0.00000000
49.70098877	0.00000000
49.70511627	0.00000000
49.70903015	0.00000000
49.71321106	0.00000000
49.71321106	0.00000000
49.71736145	0.00000000
49.72146606	0.21568628
49.72554016	0.00000000
49.72554016	0.00000000
49.72951889	0.00000000
49.73368073	0.00000000
49.73782730	0.39215687
49.73782730	0.94117647
49.74184799	0.35294119
49.74593735	0.00000000
49.75003052	0.00000000
49.75422668	0.00000000
49.75831604	0.29411766
49.75831604	0.68627453
49.76234436	0.00000000
49.76644135	0.00000000
49.77058792	0.00000000
49.77058792	0.00000000
49.77470016	0.00000000
49.77871323	0.00000000
49.78284073	0.00000000
49.78284073	0.00000000
49.78700256	0.00000000
49.79114151	0.00000000
49.79526138	0.66666669
49.79922485	0.88235295
49.80339432	0.52941179
49.80339432	0.00000000
49.80750656	0.00000000
49.81158066	0.00000000
49.81559372	0.00000000
49.81559372	0.00000000
49.81976318	0.00000000
49.82389069	0.00000000
49.82803726	0.00000000
49.82803726	0.00000000
49.83201981	0.00000000
49.83610535	0.92156863
49.84030914	2.60784316
49.84439468	2.54901958
49.84859848	1.54901958
49.84859848	0.90196079
49.85256195	0.29411766
49.85650253	0.00000000
49.86065674	0.00000000
49.86065674	0.00000000
49.86486053	0.00000000
49.86877441	0.00000000
49.87296295	0.00000000
49.87296295	0.00000000
49.87707520	0.00000000
49.88123703	0.00000000
49.88536453	0.00000000
49.88936996	0.00000000
49.89360428	0.00000000
49.89360428	0.00000000
49.89760971	0.56862748
49.90174103	1.17647064
49.90576935	0.68627453
49.90576935	0.00000000
49.90986633	0.00000000
49.91394424	0.00000000
49.91811752	0.37254903
49.91811752	0.90196079
49.92213821	0.98039216
49.92623520	0.29411766
49.93037033	0.00000000
49.93448257	0.00000000
49.93855667	0.09803922
49.93855667	0.88235295
49.94254303	0.72549021
49.94664764	0.00000000
49.95078659	0.00000000
49.95078659	0.00000000
49.95492935	0.00000000
49.95894623	0.56862748
49.96308136	0.52941179
49.96308136	0.09803922
49.96714401	0.00000000
49.97134781	0.00000000
49.97544479	0.74509805
49.97957993	1.41176474
49.98356247	1.11764705
49.98356247	0.33333334
49.98772430	0.00000000
49.99181747	0.00000000
49.99589920	0.00000000
49.99589920	0.45098040
49.99989700	0.64705884
50.00410843	0.66666669
50.00817108	0.00000000
50.00817108	0.00000000
50.01225662	0.00000000
50.01633835	0.35294119
50.02045059	1.23529410
50.02462006	0.49019608
50.02874756	0.00000000
50.02874756	0.00000000
50.03272247	0.33333334
50.03680801	0.96078432
50.04095459	1.09803927
50.04095459	0.62745100
50.04502487	0.00000000
50.04904175	0.00000000
50.05316925	0.00000000
50.05316925	0.00000000
50.05732346	0.33333334
50.06143570	0.72549021
50.06555557	0.98039216
50.06956863	0.64705884
50.07367325	0.37254903
50.07367325	0.52941179
50.07782745	0.90196079
50.08196259	0.74509805
50.08589554	0.00000000
50.08589554	0.00000000
50.09004974	0.00000000
50.09414673	0.00000000
50.09828186	0.62745100
50.09828186	0.74509805
50.10230637	0.09803922
50.10654068	0.00000000
50.11052322	0.00000000
50.11462402	0.00000000
50.11874771	0.00000000
50.11874771	0.00000000
50.12281036	0.00000000
50.12693024	0.00000000
50.13111496	0.00000000
50.13111496	0.00000000
50.13523483	0.58823532
50.13924408	0.86274511
50.14334488	0.88235295
50.14334488	0.00000000
50.14744186	0.00000000
50.15153122	0.00000000
50.15558624	0.60784316
50.15970612	0.96078432
50.16377640	0.80392158
50.16377640	0.21568628
50.16793823	0.00000000
50.17196274	0.00000000
50.17604065	0.56862748
50.17604065	1.29411769
50.18013763	0.80392158
50.18427277	0.00000000
50.18840408	0.00000000
50.18840408	0.00000000
50.19257355	0.00000000
50.19658661	0.76470590
50.20072174	1.84313726
50.20483398	1.21568632
50.20892334	0.23529412
50.20892334	0.19607843
50.21295547	0.56862748
50.21707535	1.11764705
50.22119522	1.86274505
50.22119522	1.76470590
50.22529984	0.98039216
50.22927094	0.23529412
50.23353958	0.00000000
50.23353958	0.39215687
50.23761368	1.29411769
50.24169922	1.43137252
50.24575424	0.86274511
50.24984360	0.33333334
50.25415039	0.25490198
50.25415039	0.74509805
50.25814819	1.19607842
50.26206589	1.50980389
50.26624298	1.21568632
50.26624298	0.92156863
50.27029800	0.76470590
50.27442551	1.29411769
50.27853012	2.09803915
50.27853012	2.60784316
50.28257751	2.47058821
50.28668976	1.54901958
50.29084396	0.74509805
50.29493332	1.49019611
50.29906845	2.07843137
50.29906845	2.17647052
50.30313873	1.50980389
50.30722046	0.58823532
50.31129837	0.29411766
50.31129837	0.52941179
50.31526566	1.15686274
50.31952286	1.90196073
50.32352829	1.72549021
50.32352829	1.00000000
50.32761765	0.54901963
50.33177948	0.56862748
50.33579254	1.70588231
50.33999634	2.21568632
50.34404373	1.76470590
50.34404373	1.13725495
50.34814835	0.33333334
50.35210419	0.37254903
50.35627365	1.19607842
50.35627365	2.03921580
50.36037064	2.29411769
50.36450577	2.17647052
50.36867523	1.33333337
50.36867523	0.94117647
50.37269974	1.29411769
50.37677765	2.43137264
50.38090515	3.82352948
50.38502884	3.17647052
50.38918686	2.19607854
50.38918686	1.37254906
50.39319611	1.00000000
50.39733887	0.66666669
50.40147018	0.17647059
50.40147018	0.00000000
50.40554047	0.00000000
50.40953827	0.00000000
50.41369247	0.00000000
50.41369247	0.54901963
50.41784286	1.49019611
50.42194748	1.96078432
50.42593002	1.33333337
50.43001938	1.41176474
50.43415451	1.56862748
50.43415451	2.09803915
50.43831635	2.05882359
50.44231415	1.92156863
50.44654083	1.11764705
50.44654083	0.58823532
50.45054626	0.66666669
50.45470810	1.29411769
50.45880508	2.09803915
50.45880508	2.76470590
50.46283340	2.68627453
50.46695709	1.58823526
50.47111511	1.00000000
50.47521973	1.84313726
50.47936630	2.49019599
50.47936630	2.31372547
50.48334885	1.64705884
50.48749161	0.96078432
50.49153900	0.74509805
50.49153900	1.27450979
50.49553680	2.21568632
50.49964142	2.98039222
50.50380325	2.84313726
50.50380325	1.92156863
50.50794983	1.45098042
50.51210022	1.31372547
50.51608276	2.60784316
50.52019501	2.84313726
50.52427292	2.15686274
50.52427292	1.47058821
50.52845383	1.29411769
50.53255844	1.23529410
50.53656387	2.21568632
50.53656387	3.29411769
50.54068375	3.45098042
50.54481888	2.78431368
50.54898071	1.74509799
50.54898071	1.35294116
50.55298615	2.11764717
50.55706024	3.11764717
50.56117249	3.58823538
50.56527710	2.60784316
50.56942749	1.96078432
50.56942749	1.94117641
50.57356644	2.56862736
50.57752228	3.50980401
50.58164215	4.03921556
50.58164215	3.35294127
50.58566666	2.72549009
50.58978653	2.41176462
50.59394073	2.76470590
50.59394073	3.54901958
50.59809113	4.11764717
50.60218048	4.13725471
50.60617828	2.84313726
50.61029816	2.60784316
50.61441040	2.56862736
50.61441040	2.96078420
50.61855698	3.27450991
50.62258530	3.11764717
50.62663269	2.50980401
50.62663269	2.07843137
50.63074493	2.19607854
50.63492584	2.31372547
50.63906860	2.94117641
50.63906860	2.76470590
50.64302444	2.33333325
50.64721298	1.64705884
50.65135574	0.62745100
50.65550232	1.15686274
50.65961456	2.01960778
50.65961456	2.27450991
50.66359711	1.80392158
50.66773987	1.15686274
50.67184448	0.96078432
50.67184448	1.13725495
50.67584991	1.41176474
50.67996216	1.86274505
50.68409348	2.31372547
50.68409348	1.96078432
50.68823624	1.54901958
50.69239807	1.45098042
50.69638062	2.70588231
50.70051575	3.37254906
50.70471954	3.00000000
50.70471954	1.84313726
50.70875168	1.31372547
50.71273804	1.03921568
50.71687698	1.58823526
50.71687698	2.19607854
50.72103119	2.41176462
50.72515869	1.90196073
50.72927856	1.27450979
50.72927856	1.41176474
50.73325348	1.94117641
50.73749542	2.47058821
50.74155045	2.96078420
50.74563217	2.33333325
50.74978256	1.56862748
50.74978256	1.25490201
50.75377274	1.96078432
50.75788498	2.78431368
50.76203156	3.11764717
50.76203156	2.60784316
50.76600266	1.96078432
50.77012634	1.70588231
50.77428818	1.94117641
50.77428818	2.31372547
50.77838135	2.72549009
50.78252792	2.84313726
50.78664780	1.13725495
50.79064560	0.88235295
50.79476547	1.17647064
50.79476547	2.37254906
50.79891205	2.90196085
50.80288315	3.09803915
50.80696487	2.23529410
50.80696487	1.86274505
50.81108475	1.66666663
50.81521988	2.19607854
50.81938171	2.94117641
50.81938171	3.23529410
50.82340622	2.58823538
50.82763290	1.80392158
50.83163834	1.68627453
50.83575058	2.39215684
50.83988953	3.19607854
50.83988953	3.15686274
50.84390259	2.13725495
50.84801483	1.31372547
50.85214233	1.23529410
50.85214233	1.70588231
50.85614777	2.43137264
50.86027908	2.58823538
50.86439896	2.35294127
50.86439896	1.80392158
50.86852646	1.29411769
50.87263107	1.13725495
50.87660599	2.62745094
50.88075638	2.92156863
50.88488007	2.49019599
50.88488007	1.98039210
50.88903809	1.41176474
50.89302063	1.62745094
50.89713287	2.62745094
50.89713287	3.29411769
50.90127182	3.13725495
50.90537643	2.31372547
50.90954590	1.58823526
50.90954590	1.25490201
50.91360855	1.76470590
50.91757965	3.09803915
50.92184830	4.52941179
50.92588043	4.25490189
50.93001556	3.88235283
50.93001556	3.78431368
50.93401337	3.88235283
50.93812561	3.78431368
50.94238663	2.78431368
50.94238663	1.17647064
50.94624329	0.00000000
50.95035553	0.00000000
50.95446777	0.00000000
50.95446777	0.35294119
50.95855713	1.11764705
50.96267700	1.47058821
50.96668243	1.41176474
50.97081375	1.17647064
50.97490692	1.54901958
50.97490692	2.23529410
50.97903061	2.82352948
50.98301697	2.66666675
50.98720551	1.84313726
50.98720551	1.70588231
50.99129105	2.15686274
50.99545288	2.88235283
50.99954224	3.56862736
50.99954224	4.15686274
51.00353241	3.68627453
51.00765228	2.74509811
51.01172256	2.52941179
51.01581955	3.05882359
51.01991653	3.76470590
51.01991653	4.05882359
51.02403641	3.50980401
51.02815628	2.88235283
51.03233337	2.47058821
51.03233337	2.86274505
51.03631592	3.39215684
51.04057693	3.80392146
51.04455566	3.62745094
51.04455566	3.25490189
51.04873657	2.49019599
51.05282211	2.37254906
51.05679703	3.54901958
51.06091690	3.72549009
51.06507111	3.05882359
51.06507111	2.45098042
51.06919861	2.29411769
51.07316971	2.64705873
51.07732391	3.70588231
51.07732391	4.17647076
51.08141327	3.98039222
51.08549118	3.27450991
51.08953094	2.90196085
51.08953094	2.84313726
51.09364319	3.33333325
51.09779739	3.98039222
51.10199738	4.45098019
51.10598755	3.72549009
51.11004257	3.43137264
51.11004257	3.60784316
51.11414719	4.21568632
51.11826706	4.98039198
51.12243652	4.88235283
51.12243652	4.43137264
51.12652588	3.68627453
51.13055801	3.43137264
51.13467026	3.56862736
51.13467026	3.84313726
51.13882065	4.23529434
51.14276123	4.49019623
51.14696503	3.58823538
51.15110016	3.62745094
51.15523911	4.09803915
51.15523911	4.72549009
51.15923691	4.58823538
51.16333389	3.84313726
51.16761017	2.86274505
51.16761017	2.35294127
51.17163849	2.43137264
51.17573547	3.15686274
51.17981339	3.84313726
51.17981339	3.88235283
51.18383789	3.21568632
51.18799973	2.43137264
51.19200516	2.50980401
51.19602585	3.13725495
51.20013046	3.47058821
51.20013046	3.13725495
51.20440674	2.11764717
51.20840454	1.43137252
51.21251678	1.37254906
51.21251678	1.72549021
51.21651459	2.29411769
51.22066879	2.80392146
51.22483063	2.74509811
51.22483063	2.15686274
51.22897339	1.64705884
51.23297119	1.58823526
51.23709488	3.23529410
51.24119568	3.43137264
51.24526978	2.80392146
51.24526978	1.96078432
51.24929047	1.80392158
51.25360107	2.03921580
51.25757217	2.80392146
51.25757217	3.27450991
51.26166916	2.74509811
51.26578903	2.03921580
51.26983643	1.52941179
51.26983643	1.41176474
51.27393341	2.37254906
51.27806854	3.09803915
51.28225708	3.25490189
51.28618622	2.29411769
51.29033279	1.78431368
51.29033279	1.64705884
51.29446030	2.29411769
51.29854202	3.11764717
51.30268860	3.47058821
51.30268860	2.96078420
51.30674362	2.23529410
51.31076431	1.94117641
51.31492615	2.47058821
51.31492615	2.94117641
51.31899643	3.29411769
51.32302094	2.98039222
51.32717133	1.52941179
51.33129501	1.58823526
51.33543777	2.05882359
51.33543777	3.13725495
51.33961487	3.54901958
51.34358215	2.90196085
51.34772491	2.00000000
51.34772491	1.50980389
51.35185623	1.80392158
51.35594177	2.68627453
51.35995865	3.33333325
51.35995865	3.47058821
51.36405945	2.98039222
51.36815643	2.39215684
51.37227631	2.01960778
51.37625885	2.27450991
51.38054276	2.74509811
51.38054276	3.13725495
51.38449097	2.68627453
51.38866806	2.25490189
51.39275742	2.23529410
51.39275742	2.50980401
51.39687729	2.92156863
51.40092468	2.94117641
51.40512085	2.72549009
51.40512085	2.09803915
51.40911865	1.80392158
51.41317368	1.68627453
51.41730881	2.86274505
51.42148590	2.94117641
51.42557526	2.47058821
51.42557526	1.74509799
51.42958069	1.50980389
51.43369293	1.80392158
51.43784714	2.58823538
51.43784714	3.13725495
51.44195175	2.94117641
51.44602203	2.35294127
51.45002747	1.78431368
51.45002747	1.96078432
51.45421600	2.60784316
51.45822906	3.35294127
51.46239090	4.03921556
51.46655273	3.94117641
51.47058868	4.17647076
51.47058868	4.56862736
51.47468567	4.98039198
51.47880554	4.68627453
51.48296738	3.74509811
51.48296738	1.88235295
51.48695755	0.00000000
51.49108505	0.00000000
51.49525452	0.00000000
51.49525452	0.31372550
51.49939346	0.88235295
51.50339127	1.00000000
51.50764084	0.56862748
51.50764084	0.39215687
51.51163101	0.86274511
51.51572800	2.03921580
51.51572800	3.07843137
51.51968384	3.47058821
51.52384567	2.98039222
51.52790070	1.92156863
51.52790070	1.33333337
51.53202820	1.54901958
51.53620148	2.33333325
51.54016495	2.94117641
51.54016495	3.19607854
51.54426193	2.60784316
51.54840469	2.11764717
51.55249405	1.80392158
51.55249405	2.19607854
51.55656433	2.94117641
51.56066132	3.33333325
51.56066132	2.98039222
51.56480789	2.52941179
51.56887817	2.27450991
51.57308197	2.13725495
51.57308197	2.33333325
51.57701111	2.92156863
51.58113098	3.19607854
51.58528519	3.03921580
51.58528519	2.31372547
51.58945465	1.98039210
51.59354401	2.15686274
51.59753418	2.96078420
51.59753418	3.60784316
51.60171127	3.70588231
51.60588074	3.19607854
51.60588074	2.29411769
51.60987091	1.98039210
51.61391830	2.25490189
51.61805344	3.21568632
51.61805344	3.58823538
51.62223053	3.47058821
51.62614822	2.64705873
51.63027573	2.09803915
51.63027573	2.19607854
51.63436508	2.88235283
51.63853455	3.62745094
51.64265442	3.82352948
51.64265442	3.43137264
51.64666748	2.72549009
51.65079117	2.52941179
51.65079117	2.96078420
51.65489197	3.90196085
51.65902328	4.47058821
51.66316605	4.43137264
51.66316605	3.86274505
51.66720581	3.50980401
51.67136002	3.45098042
51.67541504	3.80392146
51.67541504	4.52941179
51.67957687	4.88235283
51.68356705	4.52941179
51.68770218	3.56862736
51.68770218	2.94117641
51.69184875	2.74509811
51.69591141	3.39215684
51.69591141	3.92156863
51.69991684	4.09803915
51.70404434	3.78431368
51.70814133	3.27450991
51.70814133	2.88235283
51.71234512	2.58823538
51.71641541	3.00000000
51.72063446	3.50980401
51.72063446	3.35294127
51.72459793	2.41176462
51.72875977	1.92156863
51.73287964	1.60784316
51.73287964	1.88235295
51.73684692	2.54901958
51.74098969	2.94117641
51.74098969	2.70588231
51.74505615	1.64705884
51.74916840	1.01960790
51.75331116	1.05882359
51.75331116	2.11764717
51.75728607	2.54901958
51.76142120	2.94117641
51.76553345	2.58823538
51.76553345	1.88235295
51.76972198	1.62745094
51.77368546	1.74509799
51.77777481	2.31372547
51.77777481	2.88235283
51.78188705	3.03921580
51.78602219	2.33333325
51.78602219	1.41176474
51.79002762	1.09803927
51.79413986	1.56862748
51.79828644	2.45098042
51.79828644	2.84313726
51.80240631	2.72549009
51.80659485	1.82352936
51.81057358	1.49019611
51.81057358	1.31372547
51.81465530	2.05882359
51.81876755	2.82352948
51.82296753	3.09803915
51.82296753	2.62745094
51.82695007	2.13725495
51.83106995	1.76470590
51.83106995	1.74509799
51.83515167	2.49019599
51.83927917	3.09803915
51.84339142	3.27450991
51.84339142	2.54901958
51.84748840	1.56862748
51.85157394	1.27450979
51.85576248	1.94117641
51.85576248	2.78431368
51.85971069	3.13725495
51.86382294	3.07843137
51.86796570	2.64705873
51.86796570	2.13725495
51.87208176	1.88235295
51.87613678	2.62745094
51.87613678	3.31372547
51.88019180	3.19607854
51.88432693	2.17647052
51.88846207	1.31372547
51.88846207	1.13725495
51.89254379	1.82352936
51.89666367	2.92156863
51.90075302	3.43137264
51.90075302	3.17647052
51.90483856	2.43137264
51.90895844	1.78431368
51.91300583	1.41176474
51.91300583	1.84313726
51.91698837	2.86274505
51.92120743	3.31372547
51.92120743	3.00000000
51.92528534	2.19607854
51.92940903	1.80392158
51.93355179	2.15686274
51.93355179	2.86274505
51.93757629	3.47058821
51.94168091	3.62745094
51.94579315	2.78431368
51.94579315	1.84313726
51.94974136	1.41176474
51.95393372	1.56862748
51.95806122	2.49019599
51.95806122	3.03921580
51.96216583	2.92156863
51.96631241	2.13725495
51.96631241	1.52941179
51.97039032	1.66666663
51.97442245	2.29411769
51.97849274	3.35294127
51.97849274	3.56862736
51.98266220	3.15686274
51.98667145	2.13725495
51.99078369	1.52941179
51.99078369	1.39215684
51.99497604	1.94117641
51.99906540	2.74509811
52.00325775	2.98039222
52.00325775	2.45098042
52.00721359	2.09803915
52.01130295	1.98039210
52.01130295	2.33333325
52.01540756	3.35294127
52.01951981	4.13725471
52.02370453	4.54901981
52.02370453	4.29411745
52.02767944	4.37254906
52.03180695	4.66666651
52.03596115	4.94117641
52.03596115	4.92156839
52.03995895	4.29411745
52.04398727	2.72549009
52.04816055	0.98039216
52.04816055	0.00000000
52.05226135	0.00000000
52.05644989	0.58823532
52.05644989	1.03921568
52.06054688	1.39215684
52.06455231	1.39215684
52.06867218	0.78431374
52.06867218	0.43137255
52.07279205	0.82352942
52.07678986	1.94117641
52.08094406	2.50980401
52.08094406	2.74509811
52.08502197	2.00000000
52.08916092	1.96078432
52.09324646	2.07843137
52.09324646	2.56862736
52.09730148	3.25490189
52.10160446	3.58823538
52.10160446	3.37254906
52.10562515	2.74509811
52.10973740	2.35294127
52.11367798	2.45098042
52.11367798	3.00000000
52.11783981	3.50980401
52.12195969	3.76470590
52.12612915	3.31372547
52.12612915	2.80392146
52.13009644	2.58823538
52.13425827	2.84313726
52.13834381	3.60784316
52.13834381	4.01960802
52.14247131	3.92156863
52.14654541	2.96078420
52.14654541	2.45098042
52.15059280	2.35294127
52.15474319	2.96078420
52.15884018	3.41176462
52.15884018	3.72549009
52.16290283	3.70588231
52.16696548	3.31372547
52.17103195	2.90196085
52.17103195	2.76470590
52.17513657	3.33333325
52.17928696	3.78431368
52.18339920	3.86274505
52.18339920	3.15686274
52.18759537	2.41176462
52.19159317	2.11764717
52.19159317	2.50980401
52.19564056	3.52941179
52.19976807	4.21568632
52.20381546	4.05882359
52.20381546	3.41176462
52.20791245	2.82352948
52.21199799	2.72549009
52.21613693	3.41176462
52.21613693	4.33333349
52.22019196	4.80392170
52.22423935	4.39215708
52.22845459	3.86274505
52.22845459	3.58823538
52.23255157	3.84313726
52.23669815	4.25490189
52.23669815	4.60784292
52.24068832	4.78431368
52.24482346	4.39215708
52.24894333	3.78431368
52.24894333	3.78431368
52.25304031	4.05882359
52.25701523	4.74509811
52.26114273	4.76470566
52.26114273	4.47058821
52.26527786	3.41176462
52.26938248	2.45098042
52.27352905	2.15686274
52.27352905	2.49019599
52.27753448	3.21568632
52.28169632	3.43137264
52.28169632	3.21568632
52.28575134	2.43137264
52.28996277	1.92156863
52.29405975	1.78431368
52.29405975	2.64705873
52.29803848	3.31372547
52.30220032	3.49019599
52.30636215	3.03921580
52.30636215	2.23529410
52.31026840	1.78431368
52.31452942	2.27450991
52.31848526	2.84313726
52.31848526	3.31372547
52.32262421	3.17647052
52.32683563	2.27450991
52.32683563	1.82352936
52.33083344	1.62745094
52.33493423	2.11764717
52.33903122	2.94117641
52.33903122	3.25490189
52.34317017	3.07843137
52.34714890	2.31372547
52.35132980	1.72549021
52.35132980	1.68627453
52.35548019	2.41176462
52.35956955	3.05882359
52.36372375	3.09803915
52.36372375	2.39215684
52.36769485	1.70588231
52.37188339	1.39215684
52.37188339	1.76470590
52.37590408	2.78431368
52.37998199	3.27450991
52.38399124	2.86274505
52.38399124	2.17647052
52.38821030	1.56862748
52.39232254	1.70588231
52.39644241	2.17647052
52.39644241	2.76470590
52.40049744	3.13725495
52.40456772	2.78431368
52.40865707	2.13725495
52.40865707	1.60784316
52.41278458	1.70588231
52.41694641	2.37254906
52.41694641	3.29411769
52.42094421	3.43137264
52.42507935	2.66666675
52.42919159	2.15686274
52.42919159	1.82352936
52.43333817	2.15686274
52.43730164	2.80392146
52.44150543	3.09803915
52.44150543	2.86274505
52.44553757	2.00000000
52.44960785	2.05882359
52.45375443	1.94117641
52.45375443	2.43137264
52.45782471	3.07843137
52.46192932	3.25490189
52.46192932	2.82352948
52.46609879	2.03921580
52.47014618	1.86274505
52.47420883	1.80392158
52.47420883	2.27450991
52.47821426	2.88235283
52.48238373	3.19607854
52.48654556	2.50980401
52.48654556	1.94117641
52.49056625	1.78431368
52.49472046	2.37254906
52.49877548	3.15686274
52.49877548	3.58823538
52.50304413	3.29411769
52.50705719	2.62745094
52.50705719	2.27450991
52.51104736	2.27450991
52.51517487	2.94117641
52.51937103	3.64705873
52.51937103	3.60784316
52.52341843	2.96078420
52.52749634	2.43137264
52.53150177	2.00000000
52.53150177	1.98039210
52.53559113	2.72549009
52.53981018	3.01960778
52.54390717	3.15686274
52.54390717	2.43137264
52.54792786	1.74509799
52.55207443	1.68627453
52.55207443	2.11764717
52.55622482	2.86274505
52.56016541	3.41176462
52.56428909	3.00000000
52.56428909	2.29411769
52.56837463	1.78431368
52.57256317	2.01960778
52.57663345	2.84313726
52.57663345	3.45098042
52.58065414	3.56862736
52.58478546	2.96078420
52.58891296	2.39215684
52.58891296	1.94117641
52.59300232	2.66666675
52.59712219	3.76470590
52.59712219	4.92156839
52.60119247	4.98039198
52.60535431	4.70588255
52.60945892	4.33333349
52.60945892	3.70588231
52.61351395	3.31372547
52.61756134	2.68627453
52.62168121	1.68627453
52.62168121	0.94117647
52.62583542	0.00000000
52.62997055	0.00000000
52.63409805	0.00000000
52.63409805	0.33333334
52.63809586	1.31372547
52.64220047	1.88235295
52.64220047	1.76470590
52.64634705	1.35294116
52.65028763	1.19607842
52.65460587	1.60784316
52.65460587	2.52941179
52.65851212	3.29411769
52.66262436	3.41176462
52.66677856	3.05882359
52.66677856	2.35294127
52.67078400	2.17647052
52.67489624	2.80392146
52.67899323	3.74509811
52.67899323	4.15686274
52.68309784	3.47058821
52.68729782	2.58823538
52.68729782	2.31372547
52.69130325	2.25490189
52.69538498	3.13725495
52.69952774	4.07843161
52.69952774	4.35294104
52.70353699	3.64705873
52.70759964	2.84313726
52.71184921	2.58823538
52.71184921	2.68627453
52.71585464	3.35294127
52.72004318	3.82352948
52.72412872	3.82352948
52.72412872	3.07843137
52.72812653	2.70588231
52.73224640	2.52941179
52.73224640	3.07843137
52.73638535	3.74509811
52.74054718	3.94117641
52.74453735	3.74509811
52.74453735	3.07843137
52.74868774	2.66666675
52.75283432	2.60784316
52.75697327	3.01960778
52.75697327	3.70588231
52.76090240	4.03921556
52.76499176	3.74509811
52.76912689	3.23529410
52.76912689	3.07843137
52.77325058	3.27450991
52.77735138	4.03921556
52.77735138	4.64705896
52.78158188	4.66666651
52.78549576	4.09803915
52.78964233	3.52941179
52.78964233	3.66666675
52.79364014	4.25490189
52.79780197	4.96078444
52.80192947	4.98039198
52.80192947	4.88235283
52.80612183	4.21568632
52.81021881	3.62745094
52.81417465	3.52941179
52.81417465	4.35294104
52.81828690	4.96078444
52.82242584	4.88235283
52.82242584	4.19607830
52.82656097	3.78431368
52.83048630	3.78431368
52.83461380	4.17647076
52.83461380	4.66666651
52.83875275	4.96078444
52.84290695	4.76470566
52.84696960	3.98039222
52.84696960	3.33333325
52.85103226	3.15686274
52.85513687	3.43137264
52.85927963	4.11764717
52.85927963	4.29411745
52.86340332	3.56862736
52.86756516	2.72549009
52.86756516	2.27450991
52.87156296	2.39215684
52.87560654	3.13725495
52.87981796	3.68627453
52.87981796	3.58823538
52.88393021	2.92156863
52.88794708	2.31372547
52.89208221	2.45098042
52.89208221	2.80392146
52.89620972	3.54901958
52.90034866	3.70588231
52.90447617	3.58823538
52.90447617	2.80392146
52.90848160	2.33333325
52.91260147	2.49019599
52.91260147	3.05882359
52.91672516	4.00000000
52.92071152	4.13725471
52.92481613	3.80392146
52.92481613	3.19607854
52.92897797	2.68627453
52.93313217	2.90196085
52.93730927	3.31372547
52.93730927	3.80392146
52.94123459	3.92156863
52.94535446	3.50980401
52.94946671	3.19607854
52.94946671	2.60784316
52.95359421	2.76470590
52.95773315	3.49019599
52.95773315	3.74509811
52.96175385	3.52941179
52.96588516	2.86274505
52.96997833	2.47058821
52.96997833	2.27450991
52.97410202	2.88235283
52.97807312	3.56862736
52.98220062	3.98039222
52.98220062	3.70588231
52.98636246	2.68627453
52.99050903	2.35294127
52.99462891	2.47058821
52.99462891	3.56862736
52.99862671	4.27450991
53.00270844	4.49019623
53.00270844	3.64705873
53.00689316	3.17647052
53.01089096	2.88235283
53.01493835	3.00000000
53.01493835	3.50980401
53.01905060	3.80392146
53.02322006	3.64705873
53.02738190	2.94117641
53.02738190	2.60784316
53.03135300	2.45098042
53.03561401	2.88235283
53.03962708	3.35294127
53.03962708	3.56862736
53.04368973	3.15686274
53.04782867	2.54901958
53.04782867	2.27450991
53.05186081	2.33333325
53.05597305	3.29411769
53.06013107	3.94117641
53.06013107	4.19607830
53.06426239	3.45098042
53.06822586	2.64705873
53.07238007	2.64705873
53.07238007	3.11764717
53.07647705	3.96078420
53.08057022	4.29411745
53.08468246	3.88235283
53.08468246	3.23529410
53.08872223	2.86274505
53.09286880	2.41176462
53.09286880	2.68627453
53.09695435	3.31372547
53.10099411	3.52941179
53.10505676	3.07843137
53.10505676	2.47058821
53.10918808	2.35294127
53.11338043	2.58823538
53.11750793	3.33333325
53.11750793	3.88235283
53.12163925	3.88235283
53.12562943	3.05882359
53.12975693	2.49019599
53.12975693	2.23529410
53.13387680	2.52941179
53.13804626	3.43137264
53.13804626	3.56862736
53.14199448	3.39215684
53.14607620	2.88235283
53.15021896	2.84313726
53.15021896	3.01960778
53.15425110	3.54901958
53.15837097	4.00000000
53.16258240	4.07843161
53.16258240	3.76470590
53.16661072	3.54901958
53.17068481	3.74509811
53.17470551	4.47058821
53.17470551	4.98039198
53.17881012	4.82352924
53.18295670	4.17647076
53.18295670	2.47058821
53.18715668	0.96078432
53.19109726	0.00000000
53.19517899	0.00000000
53.19517899	0.70588237
53.19923401	1.33333337
53.20346069	1.37254906
53.20758057	0.94117647
53.20758057	1.05882359
53.21151352	1.45098042
53.21563339	2.09803915
53.21987534	3.19607854
53.21987534	3.56862736
53.22394180	3.43137264
53.22794724	2.74509811
53.22794724	2.11764717
53.23207474	2.37254906
53.23612976	3.37254906
53.24033356	4.23529434
53.24033356	3.88235283
53.24424744	2.78431368
53.24853134	2.09803915
53.25249863	1.84313726
53.25249863	2.49019599
53.25666046	3.41176462
53.26074600	3.72549009
53.26486588	3.68627453
53.26486588	2.84313726
53.26906204	2.25490189
53.27319717	2.41176462
53.27319717	2.90196085
53.27722168	3.86274505
53.28117752	4.25490189
53.28538132	3.33333325
53.28538132	2.50980401
53.28951645	2.50980401
53.29354858	2.96078420
53.29766846	3.60784316
53.29766846	4.03921556
53.30163193	3.92156863
53.30590057	3.43137264
53.30994797	3.01960778
53.30994797	2.49019599
53.31404495	3.00000000
53.31802368	4.05882359
53.31802368	4.60784292
53.32219315	4.27450991
53.32632446	3.09803915
53.33036423	2.58823538
53.33036423	2.70588231
53.33449173	3.43137264
53.33855438	4.15686274
53.34261703	4.11764717
53.34261703	3.56862736
53.34678650	2.66666675
53.35072708	2.50980401
53.35489655	2.96078420
53.35489655	3.96078420
53.35905838	4.90196085
53.36317062	4.88235283
53.36317062	4.35294104
53.36730957	3.52941179
53.37130737	3.45098042
53.37552643	4.23529434
53.37552643	4.82352924
53.37948990	4.86274529
53.38367462	4.72549009
53.38782120	3.84313726
53.38782120	3.35294127
53.39179230	3.43137264
53.39590836	4.41176462
53.40004349	4.96078444
53.40004349	4.84313726
53.40404892	4.33333349
53.40809631	3.64705873
53.40809631	2.90196085
53.41223145	2.98039222
53.41639328	3.64705873
53.42055511	4.35294104
53.42055511	4.21568632
53.42448807	3.52941179
53.42864990	2.96078420
53.43273926	2.60784316
53.43273926	3.11764717
53.43697357	3.64705873
53.44090652	3.80392146
53.44498444	3.23529410
53.44498444	2.45098042
53.44916916	1.64705884
53.45329285	1.82352936
53.45329285	2.41176462
53.45741272	3.27450991
53.46149826	3.68627453
53.46548843	3.23529410
53.46548843	2.64705873
53.46961975	2.41176462
53.47373962	2.23529410
53.47786713	2.98039222
53.47786713	3.52941179
53.48184967	3.37254906
53.48597717	2.49019599
53.49011612	1.98039210
53.49011612	1.78431368
53.49408722	2.70588231
53.49821472	3.37254906
53.49821472	3.49019599
53.50241852	3.29411769
53.50658798	2.66666675
53.51068497	2.35294127
53.51068497	2.45098042
53.51465607	3.21568632
53.51887512	3.74509811
53.52289963	3.68627453
53.52289963	3.15686274
53.52701187	2.50980401
53.53102493	2.00000000
53.53516388	2.09803915
53.53516388	3.01960778
53.53927612	3.62745094
53.54339600	3.70588231
53.54339600	3.33333325
53.54747391	2.86274505
53.55144119	2.62745094
53.55566788	2.66666675
53.55566788	3.09803915
53.55980301	3.45098042
53.56392288	3.31372547
53.56807709	2.66666675
53.56807709	2.52941179
53.57202530	2.13725495
53.57615662	2.39215684
53.58021927	3.13725495
53.58021927	3.45098042
53.58420944	2.98039222
53.58845901	2.41176462
53.59254074	2.56862736
53.59665298	3.29411769
53.60075760	3.58823538
53.60075760	3.35294127
53.60475159	2.62745094
53.60888290	2.00000000
53.61296844	1.94117641
53.61296844	2.66666675
53.61713791	3.50980401
53.62117767	3.72549009
53.62530899	3.31372547
53.62530899	2.41176462
53.62945175	1.82352936
53.63357925	2.00000000
53.63770294	3.54901958
53.64166641	3.80392146
53.64574432	3.33333325
53.64574432	3.11764717
53.64983368	2.98039222
53.65399551	3.09803915
53.65809250	3.35294127
53.65809250	3.60784316
53.66214752	3.62745094
53.66627502	2.90196085
53.67036438	2.11764717
53.67036438	2.00000000
53.67448425	2.72549009
53.67849731	3.29411769
53.68259430	3.23529410
53.68683624	2.41176462
53.69093323	1.96078432
53.69093323	2.19607854
53.69490814	2.96078420
53.69902039	3.60784316
53.70316315	3.64705873
53.70316315	2.82352948
53.70721817	2.29411769
53.71127319	2.15686274
53.71547699	2.60784316
53.71547699	3.23529410
53.71954727	3.50980401
53.72361755	3.52941179
53.72764206	2.54901958
53.73176193	2.58823538
53.73590088	3.25490189
53.73590088	4.21568632
53.74005127	4.68627453
53.74418259	4.66666651
53.74814606	4.29411745
53.74814606	4.21568632
53.75226593	4.68627453
53.75645447	4.96078444
53.76048279	4.94117641
53.76048279	4.27450991
53.76447296	2.60784316
53.76860809	0.84313726
53.77276230	0.00000000
53.77689362	0.72549021
53.78097916	1.33333337
53.78097916	1.37254906
53.78506088	0.98039216
53.78914642	1.07843137
53.79324341	1.68627453
53.79324341	2.60784316
53.79737091	3.39215684
53.80152512	3.56862736
53.80556488	2.80392146
53.80556488	2.43137264
53.80967712	2.17647052
53.81373978	2.11764717
53.81776810	3.50980401
53.82192230	3.66666675
53.82602692	3.17647052
53.82602692	2.80392146
53.83023834	2.41176462
53.83435059	2.25490189
53.83847046	3.03921580
53.83847046	3.64705873
53.84256744	3.76470590
53.84660721	3.31372547
53.85066986	2.80392146
53.85066986	2.54901958
53.85471725	2.98039222
53.85883713	3.66666675
53.86294174	3.47058821
53.86703491	2.80392146
53.87117386	2.47058821
53.87117386	2.66666675
53.87509918	3.37254906
53.87926865	3.84313726
53.88344574	3.66666675
53.88344574	3.09803915
53.88750839	2.66666675
53.89150620	2.49019599
53.89568329	3.19607854
53.89568329	3.76470590
53.89977264	4.09803915
53.90390778	3.88235283
53.90786743	2.92156863
53.91199493	2.88235283
53.91613007	3.39215684
53.91613007	4.11764717
53.92021942	4.45098019
53.92438889	4.13725471
53.92850113	3.41176462
53.92850113	3.19607854
53.93244934	3.45098042
53.93666840	4.19607830
53.94073868	4.88235283
53.94073868	4.86274529
53.94471359	4.21568632
53.94888306	3.37254906
53.95299530	3.94117641
53.95717239	4.88235283
53.96129227	4.94117641
53.96129227	4.62745094
53.96525955	3.78431368
53.96938705	3.33333325
53.97352600	3.43137264
53.97352600	4.09803915
53.97763824	4.94117641
53.98158646	4.80392170
53.98577118	4.39215708
53.98577118	3.72549009
53.98985291	2.88235283
53.99401093	3.13725495
53.99808502	4.11764717
54.00212097	3.94117641
54.00628281	3.37254906
54.00628281	2.60784316
54.01042938	2.50980401
54.01450729	3.03921580
54.01852417	3.54901958
54.01852417	3.64705873
54.02266693	3.21568632
54.02671432	2.47058821
54.03091812	2.00000000
54.03091812	1.76470590
54.03486633	2.64705873
54.03902054	3.49019599
54.04307556	3.01960778
54.04727554	2.27450991
54.05134964	1.68627453
54.05134964	1.58823526
54.05551147	2.52941179
54.05958176	3.01960778
54.06367874	3.03921580
54.06367874	2.41176462
54.06782913	2.11764717
54.07183838	2.00000000
54.07591629	2.41176462
54.07591629	3.03921580
54.08007050	3.43137264
54.08419800	3.11764717
54.08814621	2.07843137
54.09224319	2.33333325
54.09647751	2.88235283
54.09647751	3.58823538
54.10050964	3.56862736
54.10460281	3.05882359
54.10858536	2.47058821
54.10858536	2.09803915
54.11273956	2.47058821
54.11691666	3.17647052
54.12098694	3.37254906
54.12098694	3.35294127
54.12498474	2.76470590
54.12916565	2.29411769
54.13332748	2.58823538
54.13741302	3.39215684
54.14156723	3.82352948
54.14156723	3.54901958
54.14547348	2.90196085
54.14960480	2.49019599
54.15378189	2.19607854
54.15378189	2.58823538
54.15784454	3.47058821
54.16190720	3.52941179
54.16595459	2.78431368
54.16595459	2.05882359
54.17018127	1.94117641
54.17420578	2.23529410
54.17823410	3.70588231
54.18243790	3.62745094
54.18653107	2.62745094
54.18653107	1.90196073
54.19067001	1.78431368
54.19482422	2.35294127
54.19873047	3.15686274
54.19873047	3.35294127
54.20289993	3.01960778
54.20700455	1.94117641
54.21107483	1.49019611
54.21107483	1.76470590
54.21510696	2.66666675
54.21921158	3.45098042
54.22335434	3.17647052
54.22744370	2.72549009
54.23160553	2.25490189
54.23160553	2.50980401
54.23558807	3.09803915
54.23974991	3.56862736
54.24390030	3.31372547
54.24390030	2.47058821
54.24797440	1.96078432
54.25202942	1.47058821
54.25617218	2.00000000
54.25617218	2.84313726
54.26031113	3.17647052
54.26439667	3.01960778
54.26847839	1.90196073
54.27254105	1.68627453
54.27669525	2.27450991
54.27669525	3.15686274
54.28071594	2.90196085
54.28472137	2.29411769
54.28883362	1.66666663
54.28883362	1.66666663
54.29298019	2.41176462
54.29707718	3.00000000
54.30121994	3.01960778
54.30121994	2.66666675
54.30529404	1.70588231
54.30957031	1.68627453
54.31357574	2.88235283
54.31769562	3.78431368
54.32177353	4.66666651
54.32177353	4.60784292
54.32580566	4.15686274
54.32996750	4.11764717
54.33400345	4.70588255
54.33400345	4.96078444
54.33801270	4.76470566
54.34204865	3.88235283
54.34637451	2.07843137
54.34637451	0.03921569
54.35043716	0.00000000
54.35451126	0.00000000
54.35858154	1.45098042
54.36268616	1.27450979
54.36684036	0.54901963
54.36684036	0.52941179
54.37092590	0.72549021
54.37488174	1.68627453
54.37897873	2.58823538
54.37897873	3.00000000
54.38312531	2.56862736
54.38722229	1.64705884
54.39139175	1.52941179
54.39139175	1.86274505
54.39557648	2.74509811
54.39950943	3.41176462
54.40367126	2.56862736
54.40771866	1.94117641
54.41181946	1.84313726
54.41181946	2.09803915
54.41583633	3.07843137
54.42002106	3.84313726
54.42409897	3.54901958
54.42409897	2.72549009
54.42811584	2.27450991
54.43218613	1.96078432
54.43651199	2.29411769
54.43651199	3.05882359
54.44049454	3.49019599
54.44464493	3.49019599
54.44861221	2.86274505
54.45278931	2.80392146
54.45690155	3.23529410
54.45690155	3.52941179
54.46107101	3.45098042
54.46499634	2.74509811
54.46913910	2.15686274
54.46913910	1.92156863
54.47322845	2.21568632
54.47736359	3.29411769
54.48148727	3.68627453
54.48148727	3.70588231
54.48553085	2.92156863
54.48958588	2.56862736
54.49372482	3.29411769
54.49782181	4.00000000
54.50199890	4.09803915
54.50199890	3.82352948
54.50603867	3.07843137
54.51018143	2.76470590
54.51432037	2.84313726
54.51432037	3.45098042
54.51823425	3.98039222
54.52257538	4.47058821
54.52654266	3.84313726
54.52654266	3.47058821
54.53074265	3.43137264
54.53484726	3.56862736
54.53886414	4.82352924
54.54292679	4.66666651
54.54703140	3.82352948
54.54703140	3.35294127
54.55109406	2.96078420
54.55513000	3.49019599
54.55923462	4.11764717
54.55923462	4.41176462
54.56338120	4.15686274
54.56752777	3.39215684
54.57164001	2.94117641
54.57164001	3.11764717
54.57565308	3.72549009
54.57975006	4.17647076
54.58383560	2.94117641
54.58803177	2.21568632
54.59204483	2.09803915
54.59204483	2.33333325
54.59617233	3.05882359
54.60023880	3.29411769
54.60443878	3.01960778
54.60443878	2.03921580
54.60854340	1.66666663
54.61249924	1.60784316
54.61666107	1.98039210
54.61666107	2.82352948
54.62079239	3.00000000
54.62484741	2.45098042
54.62886047	1.58823526
54.63298035	1.76470590
54.63713455	2.76470590
54.63713455	3.17647052
54.64125443	3.11764717
54.64529419	2.35294127
54.64949417	1.78431368
54.64949417	1.88235295
54.65354156	2.27450991
54.65766144	3.07843137
54.66176605	3.58823538
54.66176605	3.33333325
54.66574097	2.47058821
54.66995239	1.92156863
54.67398071	2.25490189
54.67811966	2.96078420
54.68207550	3.23529410
54.68207550	2.80392146
54.68634415	2.17647052
54.69033432	1.88235295
54.69451141	2.23529410
54.69451141	2.68627453
54.69847488	3.21568632
54.70270157	3.29411769
54.70681381	2.62745094
54.70681381	2.07843137
54.71094513	1.86274505
54.71505737	2.37254906
54.71899796	3.35294127
54.72313309	3.05882359
54.72722244	2.17647052
54.72722244	1.70588231
54.73137283	1.80392158
54.73546982	2.49019599
54.73953247	2.90196085
54.73953247	2.96078420
54.74359894	2.62745094
54.74779129	2.00000000
54.75183868	1.82352936
54.75183868	2.43137264
54.75584412	3.09803915
54.76001358	3.19607854
54.76419067	2.80392146
54.76832199	2.35294127
54.77230835	2.03921580
54.77230835	1.84313726
54.77640533	2.52941179
54.78051758	3.25490189
54.78459930	2.92156863
54.78459930	2.01960778
54.78857803	1.49019611
54.79275894	1.50980389
54.79688644	2.52941179
54.79688644	3.15686274
54.80102158	3.43137264
54.80512619	2.78431368
54.80915070	1.86274505
54.81324387	2.23529410
54.81738281	3.00000000
54.81738281	3.62745094
54.82156754	3.50980401
54.82554245	2.68627453
54.82966995	1.76470590
54.82966995	1.54901958
54.83382416	1.98039210
54.83792877	2.80392146
54.84201431	3.37254906
54.84201431	3.15686274
54.84599686	2.31372547
54.85016632	1.66666663
54.85428619	2.37254906
54.85838318	3.01960778
54.86249542	3.35294127
54.86249542	2.78431368
54.86650848	1.86274505
54.87066269	1.62745094
54.87470245	1.78431368
54.87470245	2.27450991
54.87878036	2.98039222
54.88291168	3.33333325
54.88708115	2.58823538
54.88708115	2.11764717
54.89118576	2.19607854
54.89532089	2.86274505
54.89929581	4.35294104
54.90341568	4.52941179
54.90757751	4.39215708
54.90757751	4.07843161
54.91158295	3.96078420
54.91566086	4.49019623
54.91970062	4.33333349
54.91970062	3.37254906
54.92387009	1.52941179
54.92796707	0.09803922
54.93209457	0.00000000
54.93209457	0.00000000
54.93612671	0.64705884
54.94031143	0.98039216
54.94443893	0.64705884
54.94851303	0.47058824
54.95247650	0.74509805
54.95247650	1.47058821
54.95664597	2.45098042
54.96078491	2.92156863
54.96489716	2.76470590
54.96489716	2.25490189
54.96890259	1.82352936
54.97301483	1.98039210
54.97722626	2.88235283
54.97722626	3.39215684
54.98126221	3.49019599
54.98540115	2.80392146
54.98952866	2.19607854
54.99350357	2.54901958
54.99763107	3.29411769
54.99763107	3.70588231
55.00180817	3.13725495
55.00578308	2.35294127
55.00991058	1.88235295
55.00991058	2.00000000
55.01407242	2.33333325
55.01819229	3.15686274
55.02231979	3.00000000
55.02231979	2.78431368
55.02628708	2.15686274
55.03042221	1.82352936
55.03460312	3.17647052
55.03861618	3.52941179
55.04272079	3.60784316
55.04272079	2.94117641
55.04684067	2.39215684
55.05091858	2.31372547
55.05500793	2.76470590
55.05500793	3.62745094
55.05905533	4.33333349
55.06313324	3.94117641
55.06723022	2.72549009
55.06723022	1.94117641
55.07143402	1.96078432
55.07548904	2.76470590
55.07946777	4.03921556
55.08367157	3.64705873
55.08777618	2.96078420
55.08777618	2.68627453
55.09188080	2.92156863
55.09590912	3.47058821
55.10004044	3.98039222
55.10004044	4.31372547
55.10417557	3.76470590
55.10824585	3.01960778
55.11233521	2.82352948
55.11233521	3.19607854
55.11650467	4.31372547
55.12055969	4.98039198
55.12464905	3.92156863
55.12866211	3.13725495
55.13270187	2.88235283
55.13270187	3.27450991
55.13689423	3.88235283
55.14098358	3.96078420
55.14516068	3.70588231
55.14516068	3.01960778
55.14913559	2.49019599
55.15327072	2.66666675
55.15740585	3.13725495
55.15740585	3.70588231
55.16156006	3.86274505
55.16560745	3.05882359
55.16964722	1.96078432
55.17375183	2.29411769
55.17787170	3.03921580
55.17787170	3.54901958
55.18186188	3.37254906
55.18598938	2.64705873
55.19010925	1.72549021
55.19010925	1.41176474
55.19425583	1.84313726
55.19837570	2.80392146
55.20248032	3.13725495
55.20248032	2.62745094
55.20654297	1.68627453
55.21066284	1.66666663
55.21480942	2.19607854
55.21874237	2.84313726
55.22291183	2.94117641
55.22291183	2.03921580
55.22697449	1.58823526
55.23112869	1.68627453
55.23519897	2.21568632
55.23519897	2.84313726
55.23926163	3.39215684
55.24347305	3.33333325
55.24751282	2.52941179
55.24751282	2.17647052
55.25159836	2.03921580
55.25571823	2.27450991
55.25975037	3.17647052
55.26393509	2.74509811
55.26806641	2.45098042
55.26806641	2.47058821
55.27215958	2.60784316
55.27617645	2.88235283
55.28026199	2.64705873
55.28026199	2.74509811
55.28439331	2.45098042
55.28852844	1.92156863
55.29250336	2.05882359
55.29250336	2.45098042
55.29663086	3.25490189
55.30075836	3.80392146
55.30491257	2.88235283
55.30883789	2.41176462
55.31299973	2.27450991
55.31299973	2.49019599
55.31710434	2.88235283
55.32131195	3.21568632
55.32542419	2.94117641
55.32542419	2.68627453
55.32956314	2.31372547
55.33356094	2.43137264
55.33763885	3.19607854
55.33763885	3.78431368
55.34179306	3.62745094
55.34579849	3.00000000
55.34985352	2.17647052
55.35400009	2.50980401
55.35811996	3.31372547
55.35811996	3.88235283
55.36215210	3.68627453
55.36622238	2.86274505
55.37055588	2.45098042
55.37055588	2.29411769
55.37450409	2.80392146
55.37863159	3.86274505
55.38267899	3.94117641
55.38267899	3.35294127
55.38672638	2.52941179
55.39090347	2.19607854
55.39508057	3.07843137
55.39905548	3.72549009
55.40318298	3.86274505
55.40318298	3.00000000
55.40727997	2.56862736
55.41139984	2.58823538
55.41547394	2.84313726
55.41547394	3.23529410
55.41954422	3.39215684
55.42362213	3.07843137
55.42776108	2.37254906
55.42776108	2.00000000
55.43183136	2.01960778
55.43586349	2.70588231
55.44000626	3.66666675
55.44416046	3.11764717
55.44829559	2.47058821
55.44829559	2.07843137
55.45229340	2.39215684
55.45656967	3.49019599
55.46054459	4.05882359
55.46054459	4.23529434
55.46466446	3.62745094
55.46865463	3.41176462
55.47275162	4.00000000
55.47275162	4.92156839
55.47685623	4.94117641
55.48096848	4.74509811
55.48511887	2.03921580
55.48914337	0.47058824
55.49318314	0.00000000
55.49318314	0.00000000
55.49731827	0.84313726
55.50144577	1.29411769
55.50560760	1.13725495
55.50560760	0.50980395
55.50963211	0.49019608
55.51375198	1.09803927
55.51784897	2.23529410
55.51784897	2.96078420
55.52207565	3.13725495
55.52604675	2.66666675
55.53015137	2.15686274
55.53424835	2.92156863
55.53841782	3.76470590
55.53841782	4.45098019
55.54243088	4.25490189
55.54642868	3.25490189
55.55060577	2.45098042
55.55060577	2.37254906
55.55478668	3.07843137
55.55885696	3.72549009
55.56283951	3.86274505
55.56283951	3.33333325
55.56698227	2.68627453
55.57114410	2.62745094
55.57523346	3.47058821
55.57928848	4.15686274
55.58348846	4.17647076
55.58348846	3.29411769
55.58754349	2.70588231
55.59166718	2.64705873
55.59578705	3.45098042
55.59578705	4.19607830
55.59978485	4.41176462
55.60406876	4.21568632
55.60811615	3.70588231
55.60811615	3.01960778
55.61218643	3.11764717
55.61620712	3.80392146
55.62035370	4.56862736
55.62446594	3.66666675
55.62858582	3.03921580
55.62858582	2.96078420
55.63260269	3.09803915
55.63670349	3.98039222
55.64075851	4.39215708
55.64075851	4.25490189
55.64484787	3.52941179
55.64896011	3.07843137
55.65299225	3.01960778
55.65299225	3.47058821
55.65714264	4.43137264
55.66124725	4.96078444
55.66535950	4.21568632
55.66952133	3.98039222
55.67353821	3.88235283
55.67353821	4.52941179
55.67760086	4.98039198
55.68171310	4.98039198
55.68582535	4.76470566
55.68582535	4.60784292
55.68988800	4.35294104
55.69398499	4.74509811
55.69812775	4.98039198
55.69812775	4.84313726
55.70226669	4.76470566
55.70627975	4.17647076
55.71049118	3.41176462
55.71453857	3.58823538
55.71868134	4.29411745
55.71868134	4.49019623
55.72266388	3.92156863
55.72679901	3.45098042
55.73091507	3.15686274
55.73091507	3.21568632
55.73500824	3.62745094
55.73902512	4.09803915
55.74310303	4.35294104
55.74310303	3.92156863
55.74726486	2.92156863
55.75138474	2.31372547
55.75553131	2.92156863
55.75947189	3.74509811
55.76359177	3.92156863
55.76359177	3.01960778
55.76771927	2.54901958
55.77186584	2.41176462
55.77603531	3.07843137
55.77603531	4.01960802
55.78000641	4.29411745
55.78411865	3.76470590
55.78830719	3.07843137
55.78830719	2.78431368
55.79243469	2.96078420
55.79656219	3.58823538
55.80055237	4.03921556
55.80467224	3.39215684
55.80876160	2.68627453
55.80876160	2.31372547
55.81274414	2.70588231
55.81690598	3.90196085
55.82107544	4.27450991
55.82107544	4.13725471
55.82518005	3.39215684
55.82918549	2.76470590
55.83333969	2.58823538
55.83333969	3.13725495
55.83763123	4.23529434
55.84155273	4.49019623
55.84563446	3.35294127
55.84965515	3.05882359
55.85379410	2.86274505
55.85379410	3.50980401
55.85786438	4.35294104
55.86200333	4.66666651
55.86614609	3.90196085
55.86614609	3.27450991
55.87018585	2.96078420
55.87425613	3.11764717
55.87836838	3.92156863
55.87836838	4.52941179
55.88249969	4.31372547
55.88650513	3.50980401
55.89062500	3.15686274
55.89478683	3.50980401
55.89889145	4.19607830
55.89889145	4.37254906
55.90284729	4.05882359
55.90703201	3.45098042
55.91108704	2.92156863
55.91108704	3.13725495
55.91529083	3.66666675
55.91924667	4.15686274
55.92352295	4.45098019
55.92352295	3.74509811
55.92749786	3.39215684
55.93163300	3.62745094
55.93573761	4.76470566
55.93975830	4.94117641
55.94385529	4.49019623
55.94385529	3.68627453
55.94799423	3.00000000
55.95214462	2.88235283
55.95623398	3.41176462
55.95623398	4.19607830
55.96025467	4.54901981
55.96440887	4.11764717
55.96852875	3.50980401
55.96852875	3.31372547
55.97256088	3.49019599
55.97668076	4.03921556
55.98069382	4.80392170
55.98485565	3.98039222
55.98896027	3.37254906
55.98896027	3.13725495
55.99294281	3.41176462
55.99720383	4.39215708
56.00122452	4.76470566
56.00122452	4.52941179
56.00537872	3.90196085
56.00947571	3.35294127
56.01346207	3.35294127
56.01346207	4.00000000
56.01761627	4.80392170
56.02181244	4.94117641
56.02592468	4.39215708
56.02990341	4.39215708
56.03395844	4.98039198
56.03395844	4.98039198
56.03818512	4.98039198
56.04227448	4.98039198
56.04643631	4.70588255
56.04643631	3.84313726
56.05058289	3.00000000
56.05459595	2.25490189
56.05868149	2.17647052
56.05868149	2.13725495
56.06265640	2.03921580
56.06683350	1.33333337
56.07100296	1.23529410
56.07504272	2.13725495
56.07921982	3.39215684
56.07921982	4.11764717
56.08309555	3.78431368
56.08722305	3.03921580
56.09136963	2.96078420
56.09136963	3.43137264
56.09553146	4.07843161
56.09950256	4.88235283
56.10370636	4.72549009
56.10370636	4.03921556
56.10777664	3.56862736
56.11191559	3.54901958
56.11605835	4.72549009
56.12001801	4.92156839
56.12415314	4.70588255
56.12415314	4.07843161
56.12828445	3.45098042
56.13243484	3.33333325
56.13650894	4.03921556
56.13650894	4.70588255
56.14053726	4.94117641
56.14463425	4.45098019
56.14881134	3.80392146
56.14881134	3.56862736
56.15279388	3.56862736
56.15691376	4.43137264
56.16108322	4.84313726
56.16528702	4.13725471
56.16934204	3.54901958
56.16934204	3.45098042
56.17336273	4.00000000
56.17745209	4.94117641
56.18151474	4.96078444
56.18151474	4.70588255
56.18569183	4.21568632
56.18963242	3.98039222
56.19377899	3.96078420
56.19377899	4.15686274
56.19792175	4.76470566
56.20204163	4.86274529
56.20615387	4.41176462
56.21012115	3.88235283
56.21425629	4.09803915
56.21425629	4.94117641
56.21835327	4.98039198
56.22252274	4.84313726
56.22651291	4.23529434
56.22651291	4.09803915
56.23064041	4.23529434
56.23472977	4.74509811
56.23893356	4.98039198
56.23893356	4.98039198
56.24285507	4.94117641
56.24718094	4.68627453
56.25109863	4.49019623
56.25523376	4.98039198
56.25933838	4.98039198
56.25933838	4.98039198
56.26352310	4.76470566
56.26749039	4.41176462
56.27165985	4.27450991
56.27165985	4.27450991
56.27577972	4.86274529
56.27972794	4.98039198
56.28393173	4.90196085
56.28393173	4.39215708
56.28805923	4.01960802
56.29217148	3.66666675
56.29631042	4.76470566
56.30027390	4.94117641
56.30452347	4.62745094
56.30452347	4.11764717
56.30849838	3.54901958
56.31262589	3.56862736
56.31663132	4.11764717
56.31663132	4.43137264
56.32086182	4.68627453
56.32495499	4.39215708
56.32909393	3.70588231
56.32909393	3.60784316
56.33309174	3.68627453
56.33720398	4.27450991
56.34143066	4.39215708
56.34545135	3.58823538
56.34966278	3.07843137
56.34966278	3.03921580
56.35359573	3.25490189
56.35768509	3.94117641
56.36179733	4.45098019
56.36179733	4.15686274
56.36587524	3.56862736
56.37005997	3.33333325
56.37408447	3.35294127
56.37408447	3.88235283
56.37821198	4.49019623
56.38232422	4.41176462
56.38641357	3.13725495
56.39052582	3.03921580
56.39454651	3.45098042
56.39454651	4.21568632
56.39872360	4.80392170
56.40266418	4.70588255
56.40686035	3.74509811
56.40686035	3.07843137
56.41095734	3.00000000
56.41507721	3.62745094
56.41919708	4.27450991
56.41919708	4.27450991
56.42322922	3.82352948
56.42734146	3.17647052
56.43145370	3.01960778
56.43551636	3.60784316
56.43984222	4.11764717
56.43984222	4.43137264
56.44369888	3.82352948
56.44781876	3.01960778
56.45193863	2.68627453
56.45193863	2.98039222
56.45607758	3.76470590
56.46004105	4.33333349
56.46417999	4.07843161
56.46417999	3.54901958
56.46824265	3.03921580
56.47239685	2.90196085
56.47645187	4.29411745
56.48044968	4.52941179
56.48457718	4.05882359
56.48457718	3.19607854
56.48876190	3.00000000
56.49291611	3.00000000
56.49687195	3.56862736
56.49687195	4.41176462
56.50103378	4.72549009
56.50516510	4.23529434
56.50922012	3.74509811
56.50922012	3.56862736
56.51324844	3.39215684
56.51751709	3.98039222
56.52151489	4.05882359
56.52566910	3.07843137
56.52980423	2.62745094
56.52980423	2.58823538
56.53378677	2.70588231
56.53799820	3.68627453
56.54206848	4.15686274
56.54206848	3.86274505
56.54620743	2.90196085
56.55020523	2.27450991
56.55433273	2.47058821
56.55433273	3.27450991
56.55844498	3.98039222
56.56253052	3.92156863
56.56665421	2.54901958
56.57080460	2.41176462
56.57475662	2.74509811
56.57475662	3.76470590
56.57886887	4.64705896
56.58304596	4.78431368
56.58704376	4.00000000
56.58704376	3.92156863
56.59109116	4.15686274
56.59522629	4.98039198
56.59938049	4.98039198
56.59938049	4.98039198
56.60347748	4.76470566
56.60749817	3.96078420
56.61162567	2.01960778
56.61573029	1.94117641
56.61988449	2.07843137
56.61988449	1.76470590
56.62389755	1.13725495
56.62803650	0.35294119
56.63216400	0.47058824
56.63216400	0.88235295
56.63622665	1.88235295
56.64030838	2.43137264
56.64452744	2.58823538
56.64452744	2.17647052
56.64852524	1.86274505
56.65265274	2.31372547
56.65675735	3.80392146
56.66085434	4.35294104
56.66495514	4.00000000
56.66495514	3.07843137
56.66915894	2.43137264
56.67307663	2.76470590
56.67718124	3.37254906
56.67718124	3.96078420
56.68132401	3.80392146
56.68547058	3.21568632
56.68956757	2.58823538
56.68956757	2.35294127
56.69358063	3.03921580
56.69781494	3.84313726
56.70182037	3.96078420
56.70595932	3.41176462
56.71010208	3.01960778
56.71010208	2.76470590
56.71404266	3.21568632
56.71820450	4.03921556
56.72231674	3.94117641
56.72231674	3.37254906
56.72641373	2.60784316
56.73054123	2.35294127
56.73457336	2.72549009
56.73457336	3.62745094
56.73865891	4.27450991
56.74274826	4.35294104
56.74678802	2.86274505
56.75092316	2.66666675
56.75506210	2.94117641
56.75506210	3.62745094
56.75916672	3.96078420
56.76315308	3.72549009
56.76733398	3.07843137
56.76733398	2.74509811
56.77159882	2.94117641
56.77558899	3.62745094
56.77972794	4.09803915
56.77972794	4.49019623
56.78370667	4.09803915
56.78781891	3.58823538
56.79190063	3.96078420
56.79607010	4.84313726
56.80022430	4.90196085
56.80022430	4.64705896
56.80435181	3.88235283
56.80832672	3.52941179
56.81244659	3.70588231
56.81244659	4.13725471
56.81652451	4.64705896
56.82053757	4.66666651
56.82467651	4.43137264
56.82467651	3.92156863
56.82878876	3.52941179
56.83292389	3.37254906
56.83700562	4.43137264
56.84096909	4.45098019
56.84513092	3.60784316
56.84513092	2.74509811
56.84923553	2.39215684
56.85324097	2.58823538
56.85745239	3.35294127
56.85745239	3.88235283
56.86145020	3.86274505
56.86566925	2.86274505
56.86974716	2.21568632
56.86974716	2.03921580
56.87376404	2.15686274
56.87785721	2.90196085
56.88201141	3.19607854
56.88609314	2.23529410
56.89019775	1.78431368
56.89019775	1.62745094
56.89424133	2.17647052
56.89833069	2.96078420
56.90244293	3.31372547
56.90244293	2.80392146
56.90649033	2.09803915
56.91061783	1.82352936
56.91475677	1.96078432
56.91475677	2.78431368
56.91891861	3.29411769
56.92305374	3.27450991
56.92704391	2.27450991
56.93116379	2.19607854
56.93528366	2.43137264
56.93528366	3.09803915
56.93940353	3.17647052
56.94349289	3.23529410
56.94747543	2.74509811
56.94747543	2.19607854
56.95166016	2.15686274
56.95574188	2.54901958
56.95984268	3.17647052
56.95984268	3.62745094
56.96380234	2.90196085
56.96796417	1.92156863
56.97214127	1.86274505
56.97214127	2.39215684
56.97622681	3.07843137
56.98037338	3.70588231
56.98037338	3.82352948
56.98453522	2.94117641
56.98848343	2.09803915
56.99261093	1.74509799
56.99261093	2.35294127
56.99663544	3.27450991
57.00077057	3.56862736
57.00494003	3.37254906
57.00494003	2.98039222
57.00897980	2.50980401
57.01305771	2.31372547
57.01720428	2.70588231
57.01720428	3.37254906
57.02124405	3.54901958
57.02547073	2.82352948
57.02547073	2.15686274
57.02951050	1.70588231
57.03348923	2.01960778
57.03760147	2.92156863
57.03760147	3.41176462
57.04174042	3.70588231
57.04588318	3.17647052
57.05002213	2.66666675
57.05002213	2.60784316
57.05403519	2.88235283
57.05814743	3.37254906
57.06227875	3.52941179
57.06227875	3.03921580
57.06642151	2.31372547
57.07054138	2.11764717
57.07054138	2.13725495
57.07463074	2.76470590
57.07875824	3.39215684
57.08282089	3.52941179
57.08282089	3.03921580
57.08691025	2.47058821
57.09099197	2.25490189
57.09506226	2.45098042
57.09506226	3.00000000
57.09911728	3.27450991
57.10337448	3.25490189
57.10721970	2.70588231
57.10721970	2.21568632
57.11135483	2.03921580
57.11544418	2.64705873
57.11544418	3.05882359
57.11955643	3.47058821
57.12359238	3.15686274
57.12773132	2.27450991
57.12773132	2.03921580
57.13189316	2.35294127
57.13596344	3.29411769
57.14013290	3.66666675
57.14013290	3.90196085
57.14416504	3.58823538
57.14826965	3.43137264
57.15236282	3.72549009
57.15236282	4.52941179
57.15648651	4.98039198
57.16052246	4.98039198
57.16052246	4.68627453
57.16464615	3.43137264
57.16880417	1.84313726
57.17295074	0.66666669
57.17295074	0.39215687
57.17689133	0.50980395
57.18099594	0.84313726
57.18510056	0.82352942
57.18510056	0.23529412
57.18928528	0.00000000
57.19353867	0.29411766
57.19757462	1.41176474
57.19757462	2.19607854
57.20154953	2.74509811
57.20566940	2.45098042
57.20566940	2.01960778
57.20981598	1.76470590
57.21378708	2.07843137
57.21792603	3.03921580
57.21792603	3.82352948
57.22201157	4.03921556
57.22605133	3.01960778
57.23021317	2.19607854
57.23021317	2.00000000
57.23419571	2.62745094
57.23838043	3.43137264
57.24243546	3.80392146
57.24243546	3.60784316
57.24662018	2.96078420
57.25066757	2.41176462
57.25066757	2.60784316
57.25476456	3.33333325
57.25886917	3.76470590
57.26298904	3.90196085
57.26298904	3.23529410
57.26711655	2.45098042
57.27115631	1.80392158
57.27520370	2.09803915
57.27520370	2.86274505
57.27933121	3.49019599
57.28344345	3.60784316
57.28751755	3.00000000
57.28751755	2.62745094
57.29158020	2.49019599
57.29575729	2.92156863
57.29575729	3.76470590
57.29991913	4.07843161
57.30388260	3.72549009
57.30795670	3.21568632
57.30795670	3.00000000
57.31208420	2.76470590
57.31618118	3.33333325
57.32038116	4.05882359
57.32038116	4.15686274
57.32447815	3.43137264
57.32846832	2.82352948
57.33258820	2.54901958
57.33258820	2.82352948
57.33657074	3.68627453
57.34073257	4.19607830
57.34073257	4.35294104
57.34485245	3.72549009
57.34902191	3.25490189
57.35315704	3.17647052
57.35315704	3.52941179
57.35716629	4.33333349
57.36129379	4.62745094
57.36547089	4.56862736
57.36547089	4.00000000
57.36966705	3.70588231
57.37361526	3.78431368
57.37765121	4.15686274
57.37765121	4.56862736
57.38178253	4.70588255
57.38597488	4.09803915
57.38597488	3.23529410
57.39000702	2.72549009
57.39397812	3.11764717
57.39818954	3.94117641
57.39818954	4.13725471
57.40227890	3.92156863
57.40639877	2.94117641
57.41048813	2.39215684
57.41048813	2.11764717
57.41445160	2.68627453
57.41857910	3.58823538
57.42274094	3.54901958
57.42274094	2.82352948
57.42668915	1.82352936
57.43086624	1.37254906
57.43086624	1.62745094
57.43502045	2.39215684
57.43912506	3.13725495
57.44326401	3.15686274
57.44326401	2.47058821
57.44722748	1.76470590
57.45152664	1.56862748
57.45545959	1.94117641
57.45545959	2.84313726
57.45959091	3.21568632
57.46360397	2.50980401
57.46773911	1.74509799
57.46773911	1.49019611
57.47190857	1.45098042
57.47599792	2.23529410
57.47599792	2.96078420
57.48012543	3.31372547
57.48410797	2.98039222
57.48827744	2.23529410
57.48827744	1.52941179
57.49241257	1.66666663
57.49654388	2.31372547
57.50067139	2.84313726
57.50067139	3.00000000
57.50461960	2.21568632
57.50871658	1.52941179
57.51282883	1.45098042
57.51282883	1.96078432
57.51681137	3.11764717
57.52100372	3.52941179
57.52100372	3.19607854
57.52508545	2.37254906
57.52922821	1.68627453
57.53334808	1.70588231
57.53334808	1.98039210
57.53752136	2.86274505
57.54146957	2.90196085
57.54555511	2.58823538
57.54555511	1.88235295
57.54978943	1.43137252
57.55378723	1.64705884
57.55789185	2.29411769
57.55789185	2.96078420
57.56202316	3.29411769
57.56614304	2.74509811
57.56614304	1.90196073
57.57026291	1.60784316
57.57423782	1.92156863
57.57846451	2.64705873
57.57846451	3.13725495
57.58247757	2.98039222
57.58668900	2.01960778
57.59077454	1.52941179
57.59077454	1.47058821
57.59479904	2.03921580
57.59889221	2.88235283
57.60305405	3.33333325
57.60305405	3.00000000
57.60695648	2.31372547
57.61107635	1.98039210
57.61107635	2.15686274
57.61518860	2.96078420
57.61930847	3.60784316
57.62347794	3.43137264
57.62347794	2.58823538
57.62751007	1.78431368
57.63165283	1.52941179
57.63576508	1.94117641
57.63576508	2.88235283
57.63989639	3.54901958
57.64387512	3.09803915
57.64798737	2.19607854
57.64798737	1.66666663
57.65214157	1.54901958
57.65628052	2.09803915
57.65628052	2.62745094
57.66028595	3.15686274
57.66452026	2.58823538
57.66851044	1.56862748
57.66851044	1.27450979
57.67270279	1.72549021
57.67681503	2.41176462
57.68093872	3.17647052
57.68093872	3.70588231
57.68491745	3.03921580
57.68905640	2.49019599
57.69316101	2.35294127
57.69316101	3.05882359
57.69715881	3.90196085
57.70128632	4.64705896
57.70128632	4.72549009
57.70543289	4.31372547
57.70952606	4.09803915
57.71360779	3.62745094
57.71360779	3.25490189
57.71767807	2.54901958
57.72179031	1.39215684
57.72589493	0.25490198
57.72589493	0.00000000
57.73007965	0.00000000
57.73406219	0.00000000
57.73820877	0.13725491
57.73820877	0.92156863
57.74220657	1.21568632
57.74634171	0.92156863
57.74634171	1.05882359
57.75046158	1.39215684
57.75449371	1.82352936
57.75863647	2.62745094
57.75863647	3.05882359
57.76276779	2.82352948
57.76688004	2.27450991
57.77090836	1.90196073
57.77090836	1.90196073
57.77502060	2.62745094
57.77911758	3.01960778
57.78326416	3.13725495
57.78326416	2.78431368
57.78729248	2.01960778
57.79154587	2.01960778
57.79154587	2.25490189
57.79554367	2.92156863
57.79969788	3.11764717
57.80382538	2.98039222
57.80382538	2.27450991
57.80782318	2.15686274
57.81189346	2.31372547
57.81600571	2.68627453
57.81600571	3.41176462
57.82015228	3.78431368
57.82416534	3.49019599
57.82829285	2.47058821
57.82829285	2.05882359
57.83239746	2.25490189
57.83655930	2.88235283
57.83655930	3.66666675
57.84058380	3.90196085
57.84465408	2.90196085
57.84876633	2.23529410
57.84876633	2.03921580
57.85295105	2.56862736
57.85708237	3.13725495
57.86103821	3.66666675
57.86103821	3.72549009
57.86514282	2.90196085
57.86927795	2.37254906
57.87349701	2.37254906
57.87349701	2.88235283
57.87755966	3.84313726
57.88152695	4.03921556
57.88152695	3.68627453
57.88564682	2.94117641
57.88976669	2.70588231
57.89385605	2.94117641
57.89385605	3.82352948
57.89793396	4.39215708
57.90208054	4.68627453
57.90623474	4.05882359
57.90623474	3.43137264
57.91033936	3.01960778
57.91426849	3.27450991
57.91851425	4.03921556
57.91851425	4.72549009
57.92256165	4.66666651
57.92668915	3.94117641
57.92668915	3.39215684
57.93067932	3.41176462
57.93480682	3.52941179
57.93889618	4.00000000
57.93889618	4.19607830
57.94303131	3.70588231
57.94717789	2.88235283
57.95114136	2.27450991
57.95114136	2.31372547
57.95528030	2.74509811
57.95936584	2.98039222
57.96356201	3.15686274
57.96356201	2.64705873
57.96757507	2.07843137
57.97171021	1.76470590
57.97171021	1.82352936
57.97585678	2.41176462
57.97985458	2.80392146
57.98407364	2.78431368
57.98407364	2.13725495
57.98806381	1.60784316
57.99214935	1.35294116
57.99626160	1.80392158
57.99626160	2.39215684
58.00044250	2.80392146
58.00457764	2.37254906
58.00849533	1.64705884
58.00849533	1.17647064
58.01255798	1.47058821
58.01672745	1.94117641
58.01672745	2.88235283
58.02079010	3.19607854
58.02488708	2.49019599
58.02899933	1.86274505
