0.97292286	4.41176462
0.97689599	4.98039198
0.97689599	4.98039198
0.98104113	4.98039198
0.98518628	4.98039198
0.98930687	4.62745094
0.98930687	3.50980401
0.99328822	2.56862736
0.99742514	2.39215684
1.00154579	2.39215684
1.00566626	1.96078432
1.00566626	1.64705884
1.00961483	1.60784316
1.01375186	1.50980389
1.01788056	2.01960778
1.01788056	2.43137264
1.02204216	2.35294127
1.02597427	1.86274505
1.03013575	1.64705884
1.03440380	1.72549021
1.03840148	2.25490189
1.04256308	2.29411769
1.04669189	1.90196073
1.04669189	1.90196073
1.05068958	1.80392158
1.05487561	1.88235295
1.05893886	2.43137264
1.06305945	2.31372547
1.06699157	2.11764717
1.07109582	2.13725495
1.07523274	2.07843137
1.07523274	2.52941179
1.07935333	2.66666675
1.08335924	2.25490189
1.08764362	1.92156863
1.09168231	1.80392158
1.09578645	2.47058821
1.09971869	3.01960778
1.10391295	2.84313726
1.10391295	2.72549009
1.10805809	2.80392146
1.11217046	2.52941179
1.11633205	2.94117641
1.11633205	3.66666675
1.12023139	3.88235283
1.12438476	3.33333325
1.12847257	3.23529410
1.13259315	3.25490189
1.13259315	3.21568632
1.13660729	3.98039222
1.14077699	4.50980377
1.14493847	4.03921556
1.14493847	3.70588231
1.14906728	3.41176462
1.15305674	3.27450991
1.15718555	3.90196085
1.16128969	4.29411745
1.16128969	3.92156863
1.16543484	3.50980401
1.16956365	3.35294127
1.17375791	3.13725495
1.17375791	3.49019599
1.17772293	3.90196085
1.18187618	3.60784316
1.18598866	3.07843137
1.18996990	2.62745094
1.18996990	2.35294127
1.19406593	2.41176462
1.19817007	3.05882359
1.20229888	3.25490189
1.20229888	2.25490189
1.20632112	2.05882359
1.21042538	2.03921580
1.21457052	1.82352936
1.21866655	2.37254906
1.21866655	2.72549009
1.22272158	2.19607854
1.22680116	1.72549021
1.23088896	1.68627453
1.23088896	1.76470590
1.23505867	2.27450991
1.23917925	2.96078420
1.24317694	2.94117641
1.24728119	2.15686274
1.25153279	2.11764717
1.25552225	2.19607854
1.25961828	2.76470590
1.25961828	2.96078420
1.26359141	2.17647052
1.26771200	1.78431368
1.27189815	1.68627453
1.27601874	1.92156863
1.28004098	1.92156863
1.28416157	1.29411769
1.28824115	1.13725495
1.28824115	1.19607842
1.29243541	1.05882359
1.29641676	1.54901958
1.30068481	1.98039210
1.30459237	1.11764705
1.30881131	0.82352942
1.31294000	0.58823532
1.31684756	1.00000000
1.31684756	1.78431368
1.32105017	1.98039210
1.32517886	1.50980389
1.32929945	1.35294116
1.32929945	1.15686274
1.33328891	1.17647064
1.33748329	1.90196073
1.34155464	2.29411769
1.34569168	1.84313726
1.34569168	1.72549021
1.34958279	1.92156863
1.35376072	1.78431368
1.35794687	2.56862736
1.35794687	2.86274505
1.36206746	2.37254906
1.36605692	1.96078432
1.37016118	1.98039210
1.37429810	1.68627453
1.37429810	2.00000000
1.37836957	2.33333325
1.38254750	2.37254906
1.38667619	2.00000000
1.38667619	1.45098042
1.39069033	1.21568632
1.39479446	1.45098042
1.39893961	2.23529410
1.40304387	2.43137264
1.40304387	1.78431368
1.40707433	1.68627453
1.41106379	1.88235295
1.41525817	2.11764717
1.41525817	2.96078420
1.41943598	3.54901958
1.42341733	3.70588231
1.42767715	4.03921556
1.43165851	4.52941179
1.43165851	4.80392170
1.43581188	4.98039198
1.43983412	4.98039198
1.44393826	4.98039198
1.44393826	4.23529434
1.44804251	3.07843137
1.45217943	2.21568632
1.45631647	1.82352936
1.46029770	1.64705884
1.46445107	1.27450979
1.46848154	1.13725495
1.47265124	1.19607842
1.47265124	1.09803927
1.47662437	1.43137252
1.48078597	1.60784316
1.48491466	1.35294116
1.48905981	0.66666669
1.49304938	0.72549021
1.49715352	1.05882359
1.50125778	1.21568632
1.50125778	1.09803927
1.50537825	1.05882359
1.50949883	1.35294116
1.51359487	1.15686274
1.51359487	1.60784316
1.51760900	2.01960778
1.52178693	1.94117641
1.52586651	1.78431368
1.53001988	1.68627453
1.53001988	1.54901958
1.53405845	1.58823526
1.53815448	2.00000000
1.54232419	2.05882359
1.54232419	1.86274505
1.54630554	1.74509799
1.55042613	1.76470590
1.55449748	1.76470590
1.55866730	1.98039210
1.55866730	2.17647052
1.56280422	2.01960778
1.56681836	1.84313726
1.57084060	1.84313726
1.57084060	1.66666663
1.57498574	2.05882359
1.57910633	2.50980401
1.58308756	2.68627453
1.58723271	2.50980401
1.58723271	2.60784316
1.59140253	2.78431368
1.59553123	2.68627453
1.59966004	3.01960778
1.59966004	3.11764717
1.60365772	2.74509811
1.60780287	2.50980401
1.61193168	2.52941179
1.61604404	2.45098042
1.61604404	2.68627453
1.62004995	2.68627453
1.62417865	2.27450991
1.62825835	2.00000000
1.62825835	1.90196073
1.63233793	1.54901958
1.63636017	1.58823526
1.64062822	1.68627453
1.64459312	0.88235295
1.64873016	0.70588237
1.65287530	0.58823532
1.65692210	0.64705884
1.65692210	0.66666669
1.66103446	0.68627453
1.66518784	0.52941179
1.66930842	0.47058824
1.67324054	0.11764706
1.67741847	0.15686275
1.68153906	0.19607843
1.68569243	0.15686275
1.68569243	0.09803922
1.68963277	0.11764706
1.69372058	0.01960784
1.69785750	0.17647059
1.70197809	0.07843138
1.70611513	0.03921569
1.71013737	0.01960784
1.71421695	0.00000000
1.71421695	0.03921569
1.71836209	0.07843138
1.72255647	0.09803922
1.72669339	0.00000000
1.72669339	0.00000000
1.73065829	0.00000000
1.73478711	0.00000000
1.73891580	0.01960784
1.74298728	0.01960784
1.74298728	0.00000000
1.74697673	0.00000000
1.75109732	0.00000000
1.75525069	0.00000000
1.75525069	0.01960784
1.75940406	0.00000000
1.76338530	0.00000000
1.76767790	0.01960784
1.77161014	0.00000000
1.77161014	0.00000000
1.77582085	0.00000000
1.77979398	0.00000000
1.78391445	0.00000000
1.78391445	0.00000000
1.78797770	0.00000000
1.79216385	0.00000000
1.79630077	0.01960784
1.80035579	0.00000000
1.80035579	0.01960784
1.80447638	0.00000000
1.80859697	0.00000000
1.81270933	0.00000000
1.81270933	0.00000000
1.81669891	0.01960784
1.82075393	0.00000000
1.82491541	0.00000000
1.82905245	0.00000000
1.83304191	0.00000000
1.83717883	0.00000000
1.84131587	0.00000000
1.84131587	0.00000000
1.84542000	0.00000000
1.84950781	0.00000000
1.85362840	0.00000000
1.85767531	0.00000000
1.86177945	0.00000000
1.86593282	0.00000000
1.87005341	0.00000000
1.87005341	0.00000000
1.87402654	0.00000000
1.87811434	0.01960784
1.88221848	0.11764706
1.88633084	0.50980395
1.89036131	0.92156863
1.89448190	1.23529410
1.89862704	1.60784316
1.89862704	1.43137252
1.90280497	1.25490201
1.90679455	0.66666669
1.91090691	0.00000000
1.91090691	0.00000000
1.91504383	0.00000000
1.91918075	0.00000000
1.92318666	0.00000000
1.92728269	0.00000000
1.92728269	0.00000000
1.93141150	0.00000000
1.93553197	0.03921569
1.93961990	0.00000000
1.93961990	0.00000000
1.94367492	0.01960784
1.94779551	0.01960784
1.95192420	0.00000000
1.95604479	0.00000000
1.95604479	0.07843138
1.96006703	0.09803922
1.96416306	0.00000000
1.96830821	0.01960784
1.96830821	0.03921569
1.97236323	0.00000000
1.97638559	0.03921569
1.98067820	0.03921569
1.98457754	0.01960784
1.98457754	0.01960784
1.98873901	0.01960784
1.99285150	0.00000000
1.99684918	0.00000000
1.99684918	0.03921569
2.00096965	0.13725491
2.00516415	0.05882353
2.00921082	0.01960784
2.01333976	0.05882353
2.01732087	0.17647059
2.02149057	0.35294119
2.02559495	0.19607843
2.02559495	0.09803922
2.02956796	0.05882353
2.03369665	0.03921569
2.03783369	0.13725491
2.04197884	0.74509805
2.04607487	0.70588237
2.05012989	0.88235295
2.05420947	0.70588237
2.05420947	0.66666669
2.05833006	0.84313726
2.06246710	1.03921568
2.06659579	1.05882359
2.07058525	1.05882359
2.07472229	0.84313726
2.07888389	0.98039216
2.08302903	1.17647064
2.08302903	1.09803927
2.08694482	1.01960790
2.09111452	0.72549021
2.09540701	0.54901963
2.09540701	0.64705884
2.09939671	0.86274511
2.10345984	0.88235295
2.10761309	0.84313726
2.11161089	0.82352942
2.11161089	0.50980395
2.11571503	0.47058824
2.11973739	0.50980395
2.12387419	0.62745100
2.12387419	0.45098040
2.12806034	0.49019608
2.13210726	0.60784316
2.13622785	0.76470590
2.14038944	1.01960790
2.14038944	1.03921568
2.14440346	0.94117647
2.14846659	0.92156863
2.15257096	0.88235295
2.15257096	0.74509805
2.15662599	0.90196079
2.16069746	1.00000000
2.16480970	0.88235295
2.16893840	1.01960790
2.16893840	1.13725495
2.17299342	0.62745100
2.17708945	0.84313726
2.18121839	0.96078432
2.18121839	0.96078432
2.18534708	0.58823532
2.18957424	1.05882359
2.19359636	0.72549021
2.19760227	0.56862748
2.19760227	0.50980395
2.20171475	0.39215687
2.20602369	0.21568628
2.20994759	0.33333334
2.20994759	0.41176471
2.21396184	0.23529412
2.21806598	0.35294119
2.22226834	0.33333334
2.22634792	0.33333334
2.23034573	0.52941179
2.23446631	0.41176471
2.23859501	0.52941179
2.23859501	0.54901963
2.24272394	0.41176471
2.24671340	0.52941179
2.25084209	0.78431374
2.25493813	0.68627453
2.25905871	0.86274511
2.26304817	0.80392158
2.26719332	0.68627453
2.26719332	0.60784316
2.27138758	0.58823532
2.27550817	0.54901963
2.27962875	0.60784316
2.28367567	0.50980395
2.28769803	0.64705884
2.29192495	0.86274511
2.29602098	0.92156863
2.29602098	0.88235295
2.30003500	1.07843137
2.30415559	0.90196079
2.30832529	0.80392158
2.30832529	0.82352942
2.31241322	0.70588237
2.31641912	0.80392158
2.32067060	1.00000000
2.32466841	1.03921568
2.32466841	0.70588237
2.32881355	0.43137255
2.33282757	0.35294119
2.33684182	0.50980395
2.33684182	0.88235295
2.34101152	1.35294116
2.34515667	1.68627453
2.34929347	2.41176462
2.35342240	3.11764717
2.35342240	3.54901958
2.35742831	4.07843161
2.36152411	4.45098019
2.36565304	4.15686274
2.36565304	3.41176462
2.36979818	2.49019599
2.37377954	1.68627453
2.37789178	1.31372547
2.38197970	1.03921568
2.38197970	1.00000000
2.38610029	0.80392158
2.39011431	0.78431374
2.39422679	0.78431374
2.39422679	0.78431374
2.39834738	0.96078432
2.40249252	1.21568632
2.40666223	1.11764705
2.41064334	1.07843137
2.41064334	0.92156863
2.41478038	0.80392158
2.41891742	1.09803927
2.42302155	1.52941179
2.42302155	1.41176474
2.42702746	1.47058821
2.43116450	1.37254906
2.43527675	1.41176474
2.43942189	1.49019611
2.44337058	1.68627453
2.44758940	1.84313726
2.45157886	1.62745094
2.45157886	1.39215684
2.45575690	1.52941179
2.45986104	1.80392158
2.46387506	2.07843137
2.46804476	1.94117641
2.47218180	1.94117641
2.47628593	1.96078432
2.48028374	2.25490189
2.48028374	2.39215684
2.48441243	2.31372547
2.48851657	2.45098042
2.49266171	2.41176462
2.49266171	2.43137264
2.49665117	2.70588231
2.50078011	2.94117641
2.50486779	3.01960778
2.50897193	3.01960778
2.50897193	3.07843137
2.51307631	2.90196085
2.51709032	3.15686274
2.52126813	3.45098042
2.52126813	3.47058821
2.52535605	3.35294127
2.52951765	3.11764717
2.53366280	2.62745094
2.53760314	2.96078420
2.53760314	3.05882359
2.54178929	2.96078420
2.54591799	2.76470590
2.55003858	2.56862736
2.55003858	2.33333325
2.55403614	2.03921580
2.55815673	2.03921580
2.56229377	2.13725495
2.56634879	1.68627453
2.56634879	2.00000000
2.57034659	2.00000000
2.57449174	1.84313726
2.57858753	2.07843137
2.57858753	2.05882359
2.58270001	2.19607854
2.58670592	1.96078432
2.59085107	2.05882359
2.59497976	1.82352936
2.59497976	2.00000000
2.59910035	2.29411769
2.60327840	2.31372547
2.60729241	2.07843137
2.60729241	2.07843137
2.61140490	2.09803915
2.61552548	2.03921580
2.61966228	2.17647052
2.62366819	2.01960778
2.62773967	2.00000000
2.63190937	2.01960778
2.63604641	2.01960778
2.63604641	1.96078432
2.64004397	1.90196073
2.64419746	1.66666663
2.64828515	1.49019611
2.65239763	1.29411769
2.65656734	1.35294116
2.66056490	1.50980389
2.66461992	1.50980389
2.66461992	1.45098042
2.66878986	1.47058821
2.67291856	1.31372547
2.67704725	1.31372547
2.68103671	1.64705884
2.68516564	1.54901958
2.68926167	1.29411769
2.69341493	1.19607842
2.69341493	1.27450979
2.69741249	1.49019611
2.70153308	1.62745094
2.70567012	1.43137252
2.70567012	1.37254906
2.70981526	1.25490201
2.71378016	1.13725495
2.71790910	1.37254906
2.72198033	1.62745094
2.72198033	1.64705884
2.72610092	1.37254906
2.73016429	1.43137252
2.73424387	1.52941179
2.73424387	1.64705884
2.73843813	1.88235295
2.74254227	1.94117641
2.74667120	1.78431368
2.75069332	1.98039210
2.75069332	1.88235295
2.75483036	1.86274505
2.75890994	2.01960778
2.76302242	2.11764717
2.76302242	1.90196073
2.76705289	1.72549021
2.77114868	1.74509799
2.77531028	1.88235295
2.77939820	1.98039210
2.77939820	1.86274505
2.78334665	1.94117641
2.78763103	1.78431368
2.79162049	2.05882359
2.79162049	2.39215684
2.79580665	2.98039222
2.79991913	3.80392146
2.80390859	4.49019623
2.80802917	4.76470566
2.80802917	4.98039198
2.81214976	4.98039198
2.81618834	4.98039198
2.82034183	4.66666651
2.82034183	3.76470590
2.82435584	2.78431368
2.82848454	2.23529410
2.83261347	1.92156863
2.83674216	1.19607842
2.84078908	1.35294116
2.84491777	1.49019611
2.84903836	1.56862748
2.84903836	1.62745094
2.85316706	1.45098042
2.85714841	1.66666663
2.86121154	1.62745094
2.86539769	1.68627453
2.86954284	1.88235295
2.87367177	1.80392158
2.87771034	1.88235295
2.87771034	2.00000000
2.88178992	2.01960778
2.88590240	1.96078432
2.89004755	1.94117641
2.89004755	1.80392158
2.89402890	1.74509799
2.89815760	2.00000000
2.90220451	2.27450991
2.90636587	2.13725495
2.90636587	2.15686274
2.91038013	2.13725495
2.91466451	1.88235295
2.91865396	2.07843137
2.91865396	2.35294127
2.92277455	2.33333325
2.92679691	2.21568632
2.93089271	2.23529410
2.93503785	2.11764717
2.93503785	2.45098042
2.93914223	2.50980401
2.94307423	2.64705873
2.94721937	2.60784316
2.94721937	2.80392146
2.95133996	2.78431368
2.95550156	2.72549009
2.95959759	3.09803915
2.96377540	3.62745094
2.96377540	3.64705873
2.96781421	3.58823538
2.97189379	3.68627453
2.97602248	3.64705873
2.97602248	3.82352948
2.98004484	3.86274505
2.98414087	3.64705873
2.98820400	3.49019599
2.99241471	3.49019599
2.99241471	3.33333325
2.99654341	3.37254906
3.00069690	3.35294127
3.00468636	3.33333325
3.00468636	3.13725495
3.00878239	3.05882359
3.01291108	2.90196085
3.01690054	3.00000000
3.02095556	2.86274505
3.02510905	2.54901958
3.02922130	2.37254906
3.03336644	2.29411769
3.03336644	2.15686274
3.03738880	2.23529410
3.04155040	2.54901958
3.04564643	2.47058821
3.04979157	2.01960778
3.05377269	1.70588231
3.05791783	1.80392158
3.06196475	2.07843137
3.06196475	2.15686274
3.06609368	2.23529410
3.07009125	2.23529410
3.07421994	2.07843137
3.07836509	2.25490189
3.08246946	2.35294127
3.08657360	2.17647052
3.09063673	2.21568632
3.09063673	2.00000000
3.09478188	1.80392158
3.09891891	1.84313726
3.10304761	1.96078432
3.10304761	1.92156863
3.10703707	1.70588231
3.11114144	1.43137252
3.11529469	1.25490201
3.11939883	1.52941179
3.11939883	1.76470590
3.12342119	1.58823526
3.12777114	1.41176474
3.13165426	1.60784316
3.13165426	1.58823526
3.13577461	1.74509799
3.13986254	1.84313726
3.14382744	1.76470590
3.14795613	1.43137252
3.14795613	1.31372547
3.15210962	1.39215684
3.15626287	1.56862748
3.16041636	1.80392158
3.16041636	1.98039210
3.16439748	1.78431368
3.16854262	1.72549021
3.17264700	1.52941179
3.17679214	1.31372547
3.17679214	1.43137252
3.18076515	1.68627453
3.18491864	1.68627453
3.18901443	1.64705884
3.18901443	1.66666663
3.19307780	1.49019611
3.19709992	1.76470590
3.20122051	1.96078432
3.20536566	2.05882359
3.20536566	1.90196073
3.20945358	1.86274505
3.21361518	1.56862748
3.21764565	1.70588231
3.21764565	1.86274505
3.22176623	1.80392158
3.22592759	1.52941179
3.23004007	1.72549021
3.23402143	1.52941179
3.23814201	1.66666663
3.24227881	1.78431368
3.24642396	2.11764717
3.24642396	2.64705873
3.25044632	3.35294127
3.25465703	3.90196085
3.25864649	4.43137264
3.26279998	4.98039198
3.26677299	4.98039198
3.27086902	4.62745094
3.27505517	3.58823538
3.27505517	2.80392146
3.27907729	2.31372547
3.28319788	1.82352936
3.28722835	1.29411769
3.28722835	1.27450979
3.29141450	0.98039216
3.29554319	0.94117647
3.29966378	1.13725495
3.30379272	1.15686274
3.30379272	1.19607842
3.30779862	1.27450979
3.31186986	1.29411769
3.31594968	1.33333337
3.31594968	1.49019611
3.31996369	1.70588231
3.32411695	1.66666663
3.32820487	1.58823526
3.33232546	1.39215684
3.33232546	1.29411769
3.33647871	1.62745094
3.34065676	1.82352936
3.34463787	2.05882359
3.34463787	1.88235295
3.34878302	1.76470590
3.35292006	1.72549021
3.35690141	1.66666663
3.36101365	1.82352936
3.36101365	2.09803915
3.36514258	1.98039210
3.36928773	2.01960778
3.37341642	2.07843137
3.37341642	2.13725495
3.37743044	2.17647052
3.38152647	2.33333325
3.38566351	2.35294127
3.38979220	2.23529410
3.38979220	2.33333325
3.39377356	2.45098042
3.39784503	2.72549009
3.40194917	2.86274505
3.40194917	2.80392146
3.40611076	2.96078420
3.41010833	3.15686274
3.41426182	3.27450991
3.41841507	3.98039222
3.42252755	4.15686274
3.42666435	4.23529434
3.43067026	4.13725471
3.43067026	4.09803915
3.43478274	4.01960802
3.43887877	3.92156863
3.44295025	4.00000000
3.44696426	3.94117641
3.45108485	3.78431368
3.45523810	3.68627453
3.45931768	3.84313726
3.45931768	3.72549009
3.46336460	3.50980401
3.46766543	3.31372547
3.47162223	3.01960778
3.47580004	2.70588231
3.47991252	3.05882359
3.48390198	3.13725495
3.48796511	3.05882359
3.48796511	2.88235283
3.49215126	2.60784316
3.49628830	2.41176462
3.50044155	2.60784316
3.50044155	2.88235283
3.50443101	2.80392146
3.50852704	2.76470590
3.51264763	2.52941179
3.51671910	2.31372547
3.51671910	2.68627453
3.52068400	2.98039222
3.52484560	3.00000000
3.52897429	2.82352948
3.52897429	2.76470590
3.53311944	2.68627453
3.53710079	2.78431368
3.54131150	2.88235283
3.54539108	2.88235283
3.54539108	2.88235283
3.54954433	2.76470590
3.55366492	2.49019599
3.55766273	2.33333325
3.55766273	2.29411769
3.56173420	2.29411769
3.56584644	2.03921580
3.56996703	2.00000000
3.57395649	2.03921580
3.57395649	1.86274505
3.57809353	2.01960778
3.58220601	1.98039210
3.58635926	1.78431368
3.58635926	1.72549021
3.59039783	1.66666663
3.59465790	1.64705884
3.59863901	2.01960778
3.60277605	2.05882359
3.60277605	2.00000000
3.60678196	1.96078432
3.61087799	1.92156863
3.61500669	1.78431368
3.61500669	1.92156863
3.61916828	2.35294127
3.62328887	2.41176462
3.62722111	2.19607854
3.63131690	2.17647052
3.63543749	2.23529410
3.63959098	2.31372547
3.64371157	2.45098042
3.64371157	2.25490189
3.64773369	2.13725495
3.65189528	2.09803915
3.65603232	2.13725495
3.66016102	2.62745094
3.66414237	2.70588231
3.66827941	2.68627453
3.67238355	2.50980401
3.67238355	2.25490189
3.67652869	2.47058821
3.68065739	2.52941179
3.68463063	2.72549009
3.68463063	2.60784316
3.68872643	2.64705873
3.69279790	2.49019599
3.69684482	2.31372547
3.70098186	2.41176462
3.70098186	2.66666675
3.70516777	2.82352948
3.70919824	3.21568632
3.71335983	3.84313726
3.71335983	4.80392170
3.71737385	4.98039198
3.72163391	4.98039198
3.72563958	4.98039198
3.72978473	4.98039198
3.72978473	4.98039198
3.73378253	4.70588255
3.73783755	4.03921556
3.74204016	3.37254906
3.74204016	2.78431368
3.74616075	2.31372547
3.75008464	2.13725495
3.75417233	1.96078432
3.75831747	1.74509799
3.75831747	1.82352936
3.76245451	2.01960778
3.76659966	1.92156863
3.77061367	1.74509799
3.77061367	1.52941179
3.77479172	1.52941179
3.77890396	1.90196073
3.78303289	2.03921580
3.78716159	1.94117641
3.78716159	2.13725495
3.79113483	2.21568632
3.79526353	2.25490189
3.79938412	2.37254906
3.79938412	2.45098042
3.80353737	2.56862736
3.80763340	2.52941179
3.81158185	2.49019599
3.81569433	2.60784316
3.81989694	2.98039222
3.82390261	3.09803915
3.82804799	2.86274505
3.82804799	2.88235283
3.83217669	2.84313726
3.83628082	2.90196085
3.84042597	3.01960778
3.84439087	2.84313726
3.84852791	2.84313726
3.85270572	2.90196085
3.85677719	2.86274505
3.85677719	3.27450991
3.86076665	3.58823538
3.86491179	3.62745094
3.86901617	3.64705873
3.87312841	3.76470590
3.87710166	3.96078420
3.88118935	4.17647076
3.88534284	4.19607830
3.88534284	4.19607830
3.88950419	4.33333349
3.89358377	4.23529434
3.89760613	4.37254906
3.89760613	4.60784292
3.90173483	4.74509811
3.90592098	4.68627453
3.91004157	4.49019623
3.91403937	4.45098019
3.91403937	4.15686274
3.91815996	4.25490189
3.92226410	4.27450991
3.92640924	4.00000000
3.92640924	3.68627453
3.93040681	3.54901958
3.93463397	3.33333325
3.93861532	3.29411769
3.94271946	3.29411769
3.94271946	3.23529410
3.94683194	3.11764717
3.95085406	3.01960778
3.95500755	2.72549009
3.95500755	2.62745094
3.95908713	2.82352948
3.96323228	2.90196085
3.96727920	2.92156863
3.97135043	2.80392146
3.97135043	2.64705873
3.97552848	2.54901958
3.97966552	2.74509811
3.98376966	2.86274505
3.98376966	2.64705873
3.98771000	2.52941179
3.99190426	2.47058821
3.99600029	2.33333325
4.00014544	2.60784316
4.00014544	2.94117641
4.00413513	3.07843137
4.00828838	3.21568632
4.01239252	3.17647052
4.01239252	2.92156863
4.01655388	3.15686274
4.02064180	3.15686274
4.02468872	3.13725495
4.02868652	3.03921580
4.03285599	2.80392146
4.03703403	2.50980401
4.04103184	2.37254906
4.04103184	2.39215684
4.04513597	2.15686274
4.04928923	2.33333325
4.05340958	2.27450991
4.05744839	1.94117641
4.06167555	2.15686274
4.06564045	2.19607854
4.06976080	2.15686274
4.06976080	2.09803915
4.07379150	1.94117641
4.07788754	2.03921580
4.08202457	2.09803915
4.08202457	2.23529410
4.08613682	2.17647052
4.09015894	2.17647052
4.09429598	2.01960778
4.09838390	2.11764717
4.09838390	2.39215684
4.10252094	2.47058821
4.10663319	2.37254906
4.11083555	2.33333325
4.11083555	2.23529410
4.11483335	2.17647052
4.11893749	2.33333325
4.12305832	2.43137264
4.12715435	2.45098042
4.12715435	2.52941179
4.13114357	2.52941179
4.13534641	2.29411769
4.13935184	2.21568632
4.13935184	2.35294127
4.14351368	2.41176462
4.14759302	2.43137264
4.15157461	2.45098042
4.15572786	2.21568632
4.15572786	2.23529410
4.15984821	2.54901958
4.16390371	2.72549009
4.16801596	2.37254906
4.16801596	2.27450991
4.17214441	2.05882359
4.17628145	1.94117641
4.18040228	2.39215684
4.18433428	3.00000000
4.18433428	3.60784316
4.18845510	4.56862736
4.19260025	4.98039198
4.19670439	4.98039198
4.19670439	4.98039198
4.20068550	4.98039198
4.20487165	4.98039198
4.20898390	4.90196085
4.21315384	3.00000000
4.21714306	2.56862736
4.22121477	2.17647052
4.22540092	2.05882359
4.22540092	1.58823526
4.22945595	1.47058821
4.23365021	1.25490201
4.23757410	1.41176474
4.24175215	1.54901958
4.24593019	1.41176474
4.25005054	1.62745094
4.25413847	1.62745094
4.25413847	1.56862748
4.25813627	1.72549021
4.26228952	1.82352936
4.26638556	1.88235295
4.27033377	2.09803915
4.27460194	1.88235295
4.27857494	1.98039210
4.28272009	2.13725495
4.28272009	2.29411769
4.28690624	2.27450991
4.29089594	2.31372547
4.29500008	2.23529410
4.29500008	2.31372547
4.29916143	2.56862736
4.30328226	2.70588231
4.30723906	2.56862736
4.31133509	2.43137264
4.31133509	2.21568632
4.31545544	2.41176462
4.31957626	2.88235283
4.32373762	2.96078420
4.32373762	2.88235283
4.32768631	2.70588231
4.33180666	2.82352948
4.33598471	2.94117641
4.34014606	3.19607854
4.34014606	3.31372547
4.34413576	3.41176462
4.34826422	3.31372547
4.35240126	3.37254906
4.35240126	3.23529410
4.35645628	3.31372547
4.36064243	3.58823538
4.36462402	3.56862736
4.36898184	3.66666675
4.36898184	3.82352948
4.37293863	3.74509811
4.37701035	3.52941179
4.38100767	3.64705873
4.38100767	3.60784316
4.38516140	3.33333325
4.38919973	3.19607854
4.39333677	3.09803915
4.39734268	2.98039222
4.39734268	3.17647052
4.40156984	3.13725495
4.40564108	3.00000000
4.40977812	2.90196085
4.40977812	2.64705873
4.41377592	2.19607854
4.41788006	2.27450991
4.42200041	2.47058821
4.42612934	2.33333325
4.43028259	2.33333325
4.43422318	2.11764717
4.43831110	2.13725495
4.43831110	2.23529410
4.44245625	2.27450991
4.44657660	2.17647052
4.45069742	2.17647052
4.45471144	2.09803915
4.45885658	2.21568632
4.46302605	2.23529410
4.46715498	2.15686274
4.46715498	2.15686274
4.47109509	2.07843137
4.47526503	1.92156863
4.47938538	2.15686274
4.47938538	2.39215684
4.48353052	2.31372547
4.48759413	2.23529410
4.49164915	2.35294127
4.49571228	2.27450991
4.49571228	2.33333325
4.49981642	2.43137264
4.50383043	2.41176462
4.50797558	2.21568632
4.50797558	2.27450991
4.51206350	2.05882359
4.51620054	1.90196073
4.52034569	2.00000000
4.52440882	2.05882359
4.52440882	1.70588231
4.52852964	1.54901958
4.53264999	1.52941179
4.53677034	1.17647064
4.53677034	1.33333337
4.54076004	1.56862748
4.54488897	1.60784316
4.54902601	1.52941179
4.55316257	1.47058821
4.55316257	1.45098042
4.55711126	1.70588231
4.56119108	1.72549021
4.56532764	1.68627453
4.56532764	1.58823526
4.56950569	1.49019611
4.57366753	1.37254906
4.57763243	1.49019611
4.58176088	1.68627453
4.58176088	1.76470590
4.58588982	1.64705884
4.59001017	1.70588231
4.59414721	1.62745094
4.59414721	1.43137252
4.59816980	1.54901958
4.60230637	1.70588231
4.60641909	1.80392158
4.61057234	1.72549021
4.61057234	1.52941179
4.61470127	1.37254906
4.61864948	1.50980389
4.62276220	1.60784316
4.62276220	1.84313726
4.62688255	1.86274505
4.63088036	1.88235295
4.63503361	1.72549021
4.63915396	1.92156863
4.64328289	2.00000000
4.64725590	1.82352936
4.65139294	1.76470590
4.65139294	1.78431368
4.65552187	1.70588231
4.65960121	1.80392158
4.66376305	1.86274505
4.66775227	1.96078432
4.67188120	2.37254906
4.67601824	2.92156863
4.68009758	3.86274505
4.68009758	4.52941179
4.68406296	4.98039198
4.68828154	4.98039198
4.69234467	4.98039198
4.69234467	4.64705896
4.69643259	3.82352948
4.70056963	3.00000000
4.70461655	2.17647052
4.70876169	1.60784316
4.70876169	1.31372547
4.71289015	0.88235295
4.71701908	0.66666669
4.72095108	1.07843137
4.72095108	1.33333337
4.72515392	1.25490201
4.72927427	1.15686274
4.73339510	1.03921568
4.73745823	0.92156863
4.73745823	1.31372547
4.74155426	1.70588231
4.74556017	1.70588231
4.74968863	1.72549021
4.74968863	1.64705884
4.75370312	1.43137252
4.75781536	1.52941179
4.76194429	1.76470590
4.76610565	1.78431368
4.76610565	1.58823526
4.77026701	1.49019611
4.77426481	1.56862748
4.77837706	1.74509799
4.77837706	1.88235295
4.78249788	1.72549021
4.78665113	1.62745094
4.79064083	1.60784316
4.79475307	1.84313726
4.79475307	1.76470590
4.79887342	2.15686274
4.80296135	2.39215684
4.80706549	2.37254906
4.80706549	2.35294127
4.81112862	2.21568632
4.81528234	2.01960778
4.81937838	2.15686274
4.82353163	2.27450991
4.82764387	2.09803915
4.83163357	2.37254906
4.83577871	2.25490189
4.83577871	2.31372547
4.83981705	2.60784316
4.84382296	3.00000000
4.84800100	3.07843137
4.85212183	2.68627453
4.85625029	2.62745094
4.86039543	2.88235283
4.86452436	3.21568632
4.86452436	3.17647052
4.86867762	3.31372547
4.87264252	3.37254906
4.87675476	3.21568632
4.88075256	2.92156863
4.88490582	2.96078420
4.88900185	2.56862736
4.89315510	2.50980401
4.89315510	2.35294127
4.89706278	2.17647052
4.90121603	2.15686274
4.90533686	2.13725495
4.90533686	1.84313726
4.90944099	1.76470590
4.91365194	1.78431368
4.91763306	1.84313726
4.92176199	1.84313726
4.92176199	2.03921580
4.92588234	1.90196073
4.93000317	1.60784316
4.93409872	1.50980389
4.93409872	1.58823526
4.93806410	1.72549021
4.94222546	1.74509799
4.94634581	1.70588231
4.95043373	1.66666663
4.95043373	1.86274505
4.95460367	1.72549021
4.95860958	2.03921580
4.96276283	2.19607854
4.96276283	2.07843137
4.96689987	2.00000000
4.97083187	2.21568632
4.97502613	2.11764717
4.97913027	1.98039210
4.97913027	2.03921580
4.98326731	1.92156863
4.98725700	1.84313726
4.99139357	1.70588231
4.99139357	1.56862748
4.99557161	1.58823526
4.99965143	1.52941179
5.00375557	1.66666663
5.00778580	1.58823526
5.00778580	1.50980389
5.01195574	1.33333337
5.01601076	1.07843137
5.02014780	1.27450979
5.02014780	1.52941179
5.02412081	1.50980389
5.02824974	1.27450979
5.03233719	1.09803927
5.03651524	1.37254906
5.04066038	1.47058821
5.04461718	1.47058821
5.04875422	1.31372547
5.04875422	1.29411769
5.05289936	1.27450979
5.05698729	1.29411769
5.06105042	1.47058821
5.06507254	1.23529410
5.06920147	1.21568632
5.07337093	1.07843137
5.07742596	0.90196079
5.07742596	1.05882359
5.08160400	1.43137252
5.08562660	1.60784316
5.08974695	1.31372547
5.08974695	1.13725495
5.09389210	0.92156863
5.09787321	1.23529410
5.10201025	1.35294116
5.10610628	1.27450979
5.10610628	1.11764705
5.11026812	1.07843137
5.11424923	1.07843137
5.11841059	1.09803927
5.11841059	1.25490201
5.12249851	1.56862748
5.12663555	1.72549021
5.13064146	1.62745094
5.13476181	1.37254906
5.13476181	1.21568632
5.13889074	1.35294116
5.14293766	1.47058821
5.14707470	1.49019611
5.14707470	1.82352936
5.15107203	2.29411769
5.15529108	2.84313726
5.15937901	3.56862736
5.16353226	4.25490189
5.16353226	4.64705896
5.16762829	4.74509811
5.17156887	4.41176462
5.17577124	3.90196085
5.17577124	3.31372547
5.17981815	2.70588231
5.18393850	2.09803915
5.18796921	1.52941179
5.19207335	1.27450979
5.19207335	1.03921568
5.19618559	1.07843137
5.20032263	1.31372547
5.20432043	1.39215684
5.20432043	1.43137252
5.20866203	1.27450979
5.21264315	1.27450979
5.21676397	1.05882359
5.22080278	1.27450979
5.22487402	1.23529410
5.22900295	1.17647064
5.23314810	1.23529410
5.23314810	1.05882359
5.23726845	1.31372547
5.24130726	1.37254906
5.24541140	1.68627453
5.24950743	1.62745094
5.25362778	1.41176474
5.25757647	1.50980389
5.26173782	1.84313726
5.26173782	2.09803915
5.26580143	1.86274505
5.26994658	1.78431368
5.27411604	1.78431368
5.27811384	2.27450991
5.28225088	2.15686274
5.28639603	2.05882359
5.29053307	2.17647052
5.29053307	2.15686274
5.29465342	2.03921580
5.29865122	2.31372547
5.30269003	2.43137264
5.30269003	2.62745094
5.30685949	2.62745094
5.31080818	2.68627453
5.31493664	2.58823538
5.31909037	2.76470590
5.31909037	3.09803915
5.32322693	3.41176462
5.32730675	3.17647052
5.33133745	2.90196085
5.33133745	2.88235283
5.33550692	3.01960778
5.33963585	3.29411769
5.34374809	3.60784316
5.34777021	3.56862736
5.34777021	3.43137264
5.35188293	3.13725495
5.35599518	2.98039222
5.36012411	3.19607854
5.36012411	3.25490189
5.36413813	2.90196085
5.36820936	2.68627453
5.37230539	2.52941179
5.37645864	2.43137264
5.37645864	2.45098042
5.38057137	2.41176462
5.38456059	2.37254906
5.38870573	2.21568632
5.38870573	2.15686274
5.39284277	1.96078432
5.39702082	1.80392158
5.40114117	1.88235295
5.40512276	2.33333325
5.40926790	2.15686274
5.41338825	1.96078432
5.41751719	1.92156863
5.41751719	2.13725495
5.42155552	2.11764717
5.42562723	1.90196073
5.42971516	1.80392158
5.43380260	2.07843137
5.43784142	2.19607854
5.44196177	2.15686274
5.44605780	2.00000000
5.44605780	2.09803915
5.45019484	2.09803915
5.45418453	1.88235295
5.45838690	1.68627453
5.46249914	2.00000000
5.46663618	1.66666663
5.47065878	1.60784316
5.47477102	1.47058821
5.47477102	1.33333337
5.47887516	1.41176474
5.48302031	1.58823526
5.48712444	1.62745094
5.48712444	1.66666663
5.49111414	1.60784316
5.49525928	1.17647064
5.49938774	1.25490201
5.50358200	1.37254906
5.50358200	1.35294116
5.50766182	1.25490201
5.51163483	1.31372547
5.51574755	1.45098042
5.51574755	1.45098042
5.51989269	1.60784316
5.52388191	1.58823526
5.52793694	1.58823526
5.53205776	1.41176474
5.53205776	1.29411769
5.53619432	1.37254906
5.54035616	1.58823526
5.54450941	1.66666663
5.54450941	1.64705884
5.54863834	1.50980389
5.55263567	1.47058821
5.55670738	1.39215684
5.56089354	1.68627453
5.56089354	1.86274505
5.56488276	1.76470590
5.56897879	1.68627453
5.57307482	1.74509799
5.57307482	1.56862748
5.57721186	1.72549021
5.58121777	1.80392158
5.58529758	1.86274505
5.58947515	1.82352936
5.58947515	1.60784316
5.59359598	1.54901958
5.59763479	1.66666663
5.60173035	1.47058821
5.60173035	1.47058821
5.60587549	1.56862748
5.61001253	1.66666663
5.61414957	1.76470590
5.61812258	2.33333325
5.62222672	3.05882359
5.62638855	3.64705873
5.63054180	4.19607830
5.63054180	4.56862736
5.63464594	4.64705896
5.63861895	4.90196085
5.64275599	4.98039198
5.64690113	3.23529410
5.65080070	2.54901958
5.65497017	1.90196073
5.65908289	1.72549021
5.65908289	1.58823526
5.66320324	1.41176474
5.66732407	1.21568632
5.67132998	1.31372547
5.67551613	1.29411769
5.67960358	1.54901958
5.68376541	1.66666663
5.68780375	1.50980389
5.68780375	1.31372547
5.69188356	1.29411769
5.69593048	1.19607842
5.70007563	1.43137252
5.70007563	1.52941179
5.70404863	1.64705884
5.70826769	1.58823526
5.71237183	1.60784316
5.71651697	1.27450979
5.71651697	1.23529410
5.72062111	1.52941179
5.72465992	1.70588231
5.72874737	1.72549021
5.72874737	1.80392158
5.73286819	1.70588231
5.73701334	1.72549021
5.74101925	2.01960778
5.74512339	2.21568632
5.74512339	1.98039210
5.74924374	1.84313726
5.75338888	1.92156863
5.75750971	2.00000000
5.75750971	2.29411769
5.76158094	2.50980401
5.76555395	2.52941179
5.76969099	2.66666675
5.77383614	2.64705873
5.77383614	2.52941179
5.77782583	2.74509811
5.78192186	2.96078420
5.78607512	2.98039222
5.78607512	3.00000000
5.79026127	3.13725495
5.79425907	3.09803915
5.79837132	3.17647052
5.80263138	3.27450991
5.80263138	3.31372547
5.80661249	3.13725495
5.81075764	3.01960778
5.81476355	2.88235283
5.81476355	2.84313726
5.81889248	3.00000000
5.82296371	3.09803915
5.82712507	2.96078420
5.83113098	2.66666675
5.83525181	2.45098042
5.83938026	2.54901958
5.84352541	2.52941179
5.84352541	2.23529410
5.84763002	1.96078432
5.85166836	2.00000000
5.85574818	1.90196073
5.85977840	2.00000000
5.86394024	2.00000000
5.86797857	2.07843137
5.87214041	2.05882359
5.87214041	1.74509799
5.87625265	1.62745094
5.88038158	2.03921580
5.88444471	2.27450991
5.88444471	2.17647052
5.88855696	2.07843137
5.89257097	1.94117641
5.89669991	1.92156863
5.90079594	2.05882359
5.90079594	2.11764717
5.90490818	2.29411769
5.90894699	2.37254906
5.91311646	2.33333325
5.91311646	2.11764717
5.91726160	2.25490189
5.92116928	2.33333325
5.92537212	2.33333325
5.92949247	1.96078432
5.92949247	1.64705884
5.93371153	1.43137252
5.93753719	1.50980389
5.94173956	1.64705884
5.94173956	1.52941179
5.94579458	1.37254906
5.95001364	1.33333337
5.95411777	1.41176474
5.95814800	1.33333337
5.95814800	1.37254906
5.96224403	1.43137252
5.96638107	1.43137252
5.97050142	1.35294116
5.97050142	1.23529410
5.97463846	1.31372547
5.97856236	1.66666663
5.98270750	1.64705884
5.98690224	1.43137252
5.98690224	1.25490201
5.99103069	1.29411769
5.99497938	1.11764705
5.99910831	1.43137252
5.99910831	1.66666663
6.00326967	1.82352936
6.00756216	1.84313726
6.01137161	1.72549021
6.01562309	1.35294116
6.01962090	1.52941179
6.02377415	1.74509799
6.02787018	1.66666663
6.02787018	1.56862748
6.03187609	1.39215684
6.03602934	1.33333337
6.04010105	1.60784316
6.04417229	1.68627453
6.04821110	1.52941179
6.05238867	1.37254906
6.05645227	1.19607842
6.05645227	1.41176474
6.06063843	1.62745094
6.06460333	1.64705884
6.06873178	1.58823526
6.07284451	1.41176474
6.07691574	1.29411769
6.08093786	1.45098042
6.08506680	1.56862748
6.08506680	1.78431368
6.08922815	2.31372547
6.09329987	3.07843137
6.09745312	3.56862736
6.09745312	4.05882359
6.10163116	4.56862736
6.10562849	4.72549009
6.10974121	4.76470566
6.11389446	4.29411745
6.11389446	3.25490189
6.11783457	2.45098042
6.12198830	2.01960778
6.12612486	1.74509799
6.12612486	1.52941179
6.13022089	1.39215684
6.13430071	1.21568632
6.13838005	1.39215684
6.14262390	1.64705884
6.14262390	1.76470590
6.14662981	1.43137252
6.15074205	1.21568632
6.15473175	1.09803927
6.15473175	1.23529410
6.15883589	1.64705884
6.16294003	1.80392158
6.16706038	1.70588231
6.17121363	1.54901958
6.17121363	1.52941179
6.17525244	1.43137252
6.17937326	1.54901958
6.18349361	1.74509799
6.18349361	1.86274505
6.18755674	1.84313726
6.19162846	1.82352936
6.19571590	1.52941179
6.19981194	1.56862748
6.19981194	1.72549021
6.20394897	1.78431368
6.20793867	1.74509799
6.21208382	1.80392158
6.21208382	1.78431368
6.21619606	1.98039210
6.22033310	2.27450991
6.22452736	2.41176462
6.22862339	2.15686274
6.23262930	2.21568632
6.23674965	2.17647052
6.24088669	2.15686274
6.24088669	2.49019599
6.24485159	2.72549009
6.24898863	2.68627453
6.25313377	2.76470590
6.25729513	3.01960778
6.26125193	3.15686274
6.26537275	3.15686274
6.26962423	3.00000000
6.26962423	3.19607854
6.27363825	3.25490189
6.27754593	3.19607854
6.28169918	3.29411769
6.28583622	3.39215684
6.28994846	3.33333325
6.29408550	3.13725495
6.29814053	2.88235283
6.29814053	2.88235283
6.30226135	2.92156863
6.30636549	2.74509811
6.31049442	2.64705873
6.31049442	2.31372547
6.31463099	2.00000000
6.31858778	2.13725495
6.32270050	2.33333325
6.32682085	2.05882359
6.32682085	1.94117641
6.33093309	2.00000000
6.33495569	1.66666663
6.33906794	1.70588231
6.33906794	1.88235295
6.34315586	1.92156863
6.34735823	1.84313726
6.35136414	1.84313726
6.35560751	1.64705884
6.35560751	1.60784316
6.35960531	2.00000000
6.36375856	2.07843137
6.36789560	2.00000000
6.36789560	1.90196073
6.37184429	1.88235295
6.37598085	1.90196073
6.38019180	2.11764717
6.38431215	2.29411769
6.38431215	2.31372547
6.38829374	2.11764717
6.39243078	2.05882359
6.39655113	1.78431368
6.39655113	1.72549021
6.40062237	1.80392158
6.40461206	1.94117641
6.40874910	1.78431368
6.41286945	1.50980389
6.41699839	1.56862748
6.42102051	1.74509799
6.42508411	1.80392158
6.42508411	1.74509799
6.42918825	1.43137252
6.43333340	1.33333337
6.43742943	1.45098042
6.44165611	2.03921580
6.44560480	1.86274505
6.44973373	1.60784316
6.45387077	1.49019611
6.45387077	1.31372547
6.45782709	1.50980389
6.46190691	1.70588231
6.46605206	1.68627453
6.47017288	1.39215684
6.47421122	1.47058821
6.47828293	1.80392158
6.48259163	2.03921580
6.48259163	2.03921580
6.48660564	1.86274505
6.49076748	1.82352936
6.49487972	1.70588231
6.49487972	1.68627453
6.49899197	1.92156863
6.50297356	2.11764717
6.50712681	2.07843137
6.51125574	1.94117641
6.51125574	2.03921580
6.51522875	2.11764717
6.51929188	2.11764717
6.52342081	2.11764717
6.52342081	1.96078432
6.52754927	1.80392158
6.53156328	1.88235295
6.53569221	1.74509799
6.53982115	1.66666663
6.53982115	1.78431368
6.54395819	1.96078432
6.54798841	2.00000000
6.55210924	1.94117641
6.55210924	1.45098042
6.55623770	1.60784316
6.56036663	2.07843137
6.56444597	2.86274505
6.56862402	3.31372547
6.56862402	3.88235283
6.57259703	4.39215708
6.57675076	4.74509811
6.58079767	4.98039198
6.58079767	4.98039198
6.58479500	4.72549009
6.58892393	4.01960802
6.59303617	3.25490189
6.59716511	2.50980401
6.59716511	2.13725495
6.60119534	1.94117641
6.60538149	1.90196073
6.60963345	1.84313726
6.60963345	1.62745094
6.61362267	1.35294116
6.61762047	1.47058821
6.62171650	1.41176474
6.62590265	1.66666663
6.62998199	1.64705884
6.63411903	1.56862748
6.63811684	1.49019611
6.63811684	1.72549021
6.64216375	1.92156863
6.64629269	1.74509799
6.65042114	1.86274505
6.65455818	1.56862748
6.65854788	1.74509799
6.66266823	2.07843137
6.66683817	2.13725495
6.66683817	1.96078432
6.67090940	1.98039210
6.67498064	1.86274505
6.67910147	1.94117641
6.67910147	2.11764717
6.68332052	2.43137264
6.68739986	2.45098042
6.69137287	2.33333325
6.69561672	2.19607854
6.69561672	2.03921580
6.69960594	2.64705873
6.70368576	2.98039222
6.70779800	2.66666675
6.70779800	2.68627453
6.71178770	2.45098042
6.71589994	2.56862736
6.72004509	2.78431368
6.72419024	3.09803915
6.72419024	3.19607854
6.72820425	3.23529410
6.73238230	3.41176462
6.73649454	3.39215684
6.73649454	3.66666675
6.74063969	3.78431368
6.74460459	3.76470590
6.74874163	3.62745094
6.75287867	3.72549009
6.75287867	3.62745094
6.75699902	3.52941179
6.76098871	3.74509811
6.76511765	3.82352948
6.76511765	3.76470590
6.76918888	3.56862736
6.77327681	3.25490189
6.77742195	2.92156863
6.78155041	2.98039222
6.78155041	3.01960778
6.78554010	2.74509811
6.78971815	2.45098042
6.79387951	2.35294127
6.79387951	2.29411769
6.79786921	2.35294127
6.80197334	2.39215684
6.80610180	2.25490189
6.81023073	1.80392158
6.81437588	1.62745094
6.81834888	1.78431368
6.82259274	2.05882359
6.82259274	2.19607854
6.82662296	2.05882359
6.83069420	2.17647052
6.83474112	1.98039210
6.83886194	1.98039210
6.84300709	2.11764717
6.84711123	2.03921580
6.85127258	2.00000000
6.85127258	1.98039210
6.85521317	1.98039210
6.85936642	2.07843137
6.86351967	2.33333325
6.86755037	2.33333325
6.87162161	2.52941179
6.87575865	2.37254906
6.87987089	2.52941179
6.87987089	2.62745094
6.88400793	2.64705873
6.88795662	2.35294127
6.89208508	2.31372547
6.89208508	2.29411769
6.89618111	2.23529410
6.90035915	2.39215684
6.90438986	2.39215684
6.90862513	2.19607854
6.90862513	2.11764717
6.91262245	1.90196073
6.91679239	1.60784316
6.92092133	2.15686274
6.92092133	2.11764717
6.92482853	1.92156863
6.92890835	1.78431368
6.93310261	1.84313726
6.93726397	1.58823526
6.93726397	1.76470590
6.94124556	1.84313726
6.94534159	2.00000000
6.94962597	1.96078432
6.94962597	1.76470590
6.95358276	1.66666663
6.95769501	1.80392158
6.96168470	1.90196073
6.96578026	1.92156863
6.96578026	1.74509799
6.96992540	1.86274505
6.97407913	1.92156863
6.97819948	2.00000000
6.97819948	2.23529410
6.98218107	2.43137264
6.98636675	2.09803915
6.99051189	2.13725495
6.99461651	2.25490189
6.99461651	2.05882359
6.99866295	2.07843137
7.00274277	2.15686274
7.00687170	2.23529410
7.00687170	2.09803915
7.01099205	2.05882359
7.01503897	2.03921580
7.01917601	2.05882359
7.02323914	2.23529410
7.02735996	2.07843137
7.03139019	1.94117641
7.03560925	2.01960778
7.03560925	2.07843137
7.03963947	2.15686274
7.04376030	2.11764717
7.04780674	1.84313726
7.05178833	1.92156863
7.05599880	2.27450991
7.06012774	3.21568632
7.06423998	4.11764717
7.06423998	4.82352924
7.06820488	4.98039198
7.07236671	4.98039198
7.07644606	4.98039198
7.08057499	4.98039198
7.08453178	4.21568632
7.08869314	3.41176462
7.09284639	2.90196085
7.09284639	2.31372547
7.09691000	1.90196073
7.10105515	1.84313726
7.10511827	1.96078432
7.10511827	1.86274505
7.10919762	1.78431368
7.11338377	1.62745094
7.11750460	1.45098042
7.12159252	1.58823526
7.12159252	1.90196073
7.12561464	1.92156863
7.12972689	1.68627453
7.13385582	1.68627453
7.13385582	1.54901958
7.13786173	1.76470590
7.14203978	2.01960778
7.14613533	2.00000000
7.15023136	2.00000000
7.15023136	2.07843137
7.15437651	2.03921580
7.15838242	1.98039210
7.16260958	2.15686274
7.16260958	2.21568632
7.16657448	2.11764717
7.17063761	2.09803915
7.17468452	1.96078432
7.17878866	2.01960778
7.17878866	2.29411769
7.18297482	2.35294127
7.18712854	2.31372547
7.19128180	2.31372547
7.19128180	2.21568632
7.19522190	2.31372547
7.19935894	2.54901958
7.20344687	2.92156863
7.20755100	2.94117641
7.20755100	2.88235283
7.21156502	3.03921580
7.21567726	2.92156863
7.21978140	3.17647052
7.21978140	3.23529410
7.22398424	3.45098042
7.22794914	3.37254906
7.23208618	3.47058821
7.23624754	3.58823538
7.24036837	3.86274505
7.24448061	3.94117641
7.24860907	3.62745094
7.24860907	3.60784316
7.25262356	3.49019599
7.25674391	3.43137264
7.26086473	3.56862736
7.26488686	3.47058821
7.26899099	3.31372547
7.27311134	3.09803915
7.27724028	2.82352948
7.27724028	2.76470590
7.28124619	2.86274505
7.28535032	2.86274505
7.28964281	2.54901958
7.28964281	2.50980401
7.29360771	2.21568632
7.29773664	2.13725495
7.30173445	2.27450991
7.30584669	2.31372547
7.30584669	2.03921580
7.30999994	2.00000000
7.31425190	1.94117641
7.31829882	1.78431368
7.31829882	1.90196073
7.32225513	2.03921580
7.32640028	1.98039210
7.33054590	1.76470590
7.33463335	1.72549021
7.33463335	1.52941179
7.33859825	1.84313726
7.34276819	1.96078432
7.34685612	2.07843137
7.34685612	1.92156863
7.35097647	1.78431368
7.35499859	1.62745094
7.35910320	1.82352936
7.36325645	1.96078432
7.36325645	2.00000000
7.36735249	1.76470590
7.37138271	1.72549021
7.37561798	1.60784316
7.37561798	1.68627453
7.37965679	2.13725495
7.38378525	2.47058821
7.38788128	2.47058821
7.39191198	2.37254906
7.39191198	2.23529410
7.39599991	2.23529410
7.40010405	2.39215684
7.40423250	2.50980401
7.40423250	2.31372547
7.40827131	1.96078432
7.41235113	1.92156863
7.41649628	1.78431368
7.42060041	1.80392158
7.42463064	1.58823526
7.42876768	1.41176474
7.43285561	1.41176474
7.43285561	1.23529410
7.43688583	1.29411769
7.44114590	1.66666663
7.44511080	1.80392158
7.44923115	1.23529410
7.45330286	1.19607842
7.45743132	1.33333337
7.46154404	1.68627453
7.46154404	1.78431368
7.46552515	1.70588231
7.46967030	1.84313726
7.47382355	1.70588231
7.47794437	1.70588231
7.48196650	1.84313726
7.48610353	1.92156863
7.49026489	1.66666663
7.49026489	1.62745094
7.49436092	1.60784316
7.49834251	1.62745094
7.50259399	1.70588231
7.50259399	1.94117641
7.50659180	1.76470590
7.51074505	1.66666663
7.51472616	1.50980389
7.51880598	1.50980389
7.51880598	1.56862748
7.52291012	1.74509799
7.52710438	1.68627453
7.53125763	1.76470590
7.53125763	1.84313726
7.53523922	1.56862748
7.53938437	1.70588231
7.54348850	2.21568632
7.54760075	2.09803915
7.54760075	1.72549021
7.55163956	1.66666663
7.55566168	1.35294116
7.55979872	1.31372547
7.55979872	1.56862748
7.56392765	1.74509799
7.56812191	1.94117641
7.57210302	2.45098042
7.57624006	3.21568632
7.57624006	4.09803915
7.58029509	4.98039198
7.58440733	4.98039198
7.58858538	4.98039198
7.58858538	4.98039198
7.59251785	4.98039198
7.59666300	4.39215708
7.60078335	3.62745094
7.60495329	2.80392146
7.60495329	2.00000000
7.60895061	1.31372547
7.61312056	1.09803927
7.61724949	0.86274511
7.61724949	0.88235295
7.62114048	0.96078432
7.62535095	0.94117647
7.62961912	0.98039216
7.63360071	0.84313726
7.63771296	1.00000000
7.64175987	1.31372547
7.64580679	1.29411769
7.64580679	1.23529410
7.64997625	1.21568632
7.65412140	1.27450979
7.65825033	1.27450979
7.66223145	1.90196073
7.66636038	1.74509799
7.67047262	1.60784316
7.67456865	1.54901958
7.67456865	1.45098042
7.67855835	1.66666663
7.68271971	1.86274505
7.68684864	2.07843137
7.68684864	2.03921580
7.69102621	2.05882359
7.69497490	1.74509799
7.69911194	1.92156863
7.70323229	2.27450991
7.70323229	2.43137264
7.70743513	2.37254906
7.71135902	2.39215684
7.71560240	2.41176462
7.71560240	2.39215684
7.71961641	2.74509811
7.72374535	3.03921580
7.72784948	3.05882359
7.73187971	3.03921580
7.73187971	2.90196085
7.73590231	2.92156863
7.74007177	3.25490189
7.74418449	3.68627453
7.74418449	3.72549009
7.74823093	3.70588231
7.75235176	3.68627453
7.75651312	3.56862736
7.76061726	3.72549009
7.76061726	3.86274505
7.76473808	3.92156863
7.76868677	3.78431368
7.77279091	3.88235283
7.77279091	3.68627453
7.77692795	3.45098042
7.78106451	3.60784316
7.78502941	3.72549009
7.78919935	3.43137264
7.78919935	3.11764717
7.79331160	2.92156863
7.79748964	2.80392146
7.80161858	2.88235283
7.80161858	2.92156863
7.80560780	2.58823538
7.80972052	2.39215684
7.81384897	2.21568632
7.81799412	2.15686274
7.82195902	2.39215684
7.82611275	2.39215684
7.83026600	2.25490189
7.83026600	2.19607854
7.83439445	2.01960778
7.83835125	1.98039210
7.84260321	2.15686274
7.84662533	2.43137264
7.85072136	2.23529410
7.85468626	2.05882359
7.85877419	1.92156863
7.85877419	2.17647052
7.86292744	2.52941179
7.86705589	2.47058821
7.87116051	2.23529410
7.87523174	2.13725495
7.87935209	2.31372547
7.88347292	2.49019599
7.88752794	2.62745094
7.88752794	2.31372547
7.89155817	2.25490189
7.89566278	2.15686274
7.89978313	2.41176462
7.89978313	2.74509811
7.90390396	3.01960778
7.90794230	2.74509811
7.91203022	2.72549009
7.91614246	2.37254906
7.91614246	2.35294127
7.92033672	2.52941179
7.92449856	2.54901958
7.92862701	2.23529410
7.92862701	2.11764717
7.93259192	1.96078432
7.93672895	1.96078432
7.94086599	1.94117641
7.94498682	2.15686274
7.94498682	2.05882359
7.94895983	1.80392158
7.95311308	1.92156863
7.95726633	1.76470590
7.95726633	2.00000000
7.96138716	2.17647052
7.96534395	2.29411769
7.96947241	2.03921580
7.97363424	2.13725495
7.97363424	2.01960778
7.97766447	2.01960778
7.98165417	2.11764717
7.98579931	2.21568632
7.98579931	2.07843137
7.98996067	2.11764717
7.99404860	2.15686274
7.99824286	2.11764717
8.00222397	2.33333325
8.00222397	2.56862736
8.00634480	2.47058821
8.01048946	2.39215684
8.01461887	2.23529410
8.01461887	2.23529410
8.01853466	2.50980401
8.02268791	2.60784316
8.02679157	2.72549009
8.03090477	2.60784316
8.03494263	2.41176462
8.03906345	2.45098042
8.04325771	2.64705873
8.04325771	2.74509811
8.04731274	2.54901958
8.05148220	2.33333325
8.05561924	2.29411769
8.05960941	2.39215684
8.06373787	2.54901958
8.06781769	2.03921580
8.07196236	1.90196073
8.07196236	1.66666663
8.07594395	1.72549021
8.08002377	2.58823538
8.08414459	3.35294127
8.08414459	4.01960802
8.08830547	4.76470566
8.09231186	4.98039198
8.09642410	4.98039198
8.10051155	4.98039198
8.10051155	4.98039198
8.10473919	4.90196085
8.10871983	3.96078420
8.11283207	3.35294127
8.11283207	2.56862736
8.11698627	1.96078432
8.12100792	1.80392158
8.12509632	1.98039210
8.12937260	1.96078432
8.12937260	1.88235295
8.13330460	1.84313726
8.13742447	1.68627453
8.14153767	2.09803915
8.14153767	2.39215684
8.14556789	2.45098042
8.14967155	2.47058821
8.15381718	2.33333325
8.15796185	2.13725495
8.15796185	2.37254906
8.16195202	2.74509811
8.16608906	2.78431368
8.17022610	2.74509811
8.17022610	2.74509811
8.17428112	2.50980401
8.17835236	2.64705873
8.18262005	2.94117641
8.18659306	3.03921580
8.18659306	2.86274505
8.19079590	2.88235283
8.19491673	2.92156863
8.19891357	2.92156863
8.19891357	3.07843137
8.20302677	3.29411769
8.20712280	3.35294127
8.21124268	3.39215684
8.21523285	3.03921580
8.21935272	3.37254906
8.22350597	3.68627453
8.22759438	3.78431368
8.22759438	3.72549009
8.23161697	3.88235283
8.23572063	3.90196085
8.23987389	3.92156863
8.24390411	4.11764717
8.24807453	4.07843161
8.25207996	4.25490189
8.25621700	4.27450991
8.25621700	4.43137264
8.26036263	4.62745094
8.26448250	4.80392170
8.26852989	4.70588255
8.27255154	4.43137264
8.27668095	4.37254906
8.28076839	4.56862736
8.28488922	4.64705896
8.28488922	4.39215708
8.28892803	4.25490189
8.29306507	4.23529434
8.29720974	3.96078420
8.29720974	3.76470590
8.30135536	3.68627453
8.30534458	3.56862736
8.30961227	3.21568632
8.31358528	3.07843137
8.31358528	2.98039222
8.31773090	2.92156863
8.32170391	3.09803915
8.32583237	3.23529410
8.32583237	2.90196085
8.32992077	2.60784316
8.33402443	2.50980401
8.33803082	2.50980401
8.34214306	2.80392146
8.34214306	2.80392146
8.34626389	2.60784316
8.35040092	2.58823538
8.35458660	2.54901958
8.35458660	2.31372547
8.35861683	2.60784316
8.36272907	2.66666675
8.36684227	2.66666675
8.37088013	2.54901958
8.37088013	2.52941179
8.37498474	2.37254906
8.37908077	2.47058821
8.38323402	2.84313726
8.38323402	3.13725495
8.38737106	2.90196085
8.39154911	2.72549009
8.39564514	2.62745094
8.39961815	2.74509811
8.39961815	2.82352948
8.40372181	2.72549009
8.40785122	2.58823538
8.41197205	2.45098042
8.41197205	2.19607854
8.41596127	1.94117641
8.42012310	2.07843137
8.42424297	2.13725495
8.42836380	1.84313726
8.43234539	1.86274505
8.43646526	1.62745094
8.44063568	1.80392158
8.44063568	2.09803915
8.44472313	2.05882359
8.44872093	1.88235295
8.45284176	1.86274505
8.45702744	1.52941179
8.46112347	1.86274505
8.46509647	2.25490189
8.46922588	2.09803915
8.46922588	1.94117641
8.47345257	1.94117641
8.47746658	2.07843137
8.48154640	2.21568632
8.48154640	2.19607854
8.48555183	2.15686274
8.48966408	1.98039210
8.49376011	2.01960778
8.49789715	1.96078432
8.49789715	2.21568632
8.50195217	2.27450991
8.50608158	2.35294127
8.51019382	2.27450991
8.51019382	2.19607854
8.51434708	1.94117641
8.51827908	2.15686274
8.52253914	2.43137264
8.52654457	2.45098042
8.52654457	2.27450991
8.53064919	2.23529410
8.53476143	2.19607854
8.53879166	2.21568632
8.53879166	2.43137264
8.54293728	2.68627453
8.54711533	2.52941179
8.55124378	2.31372547
8.55533981	2.25490189
8.55533981	2.13725495
8.55935383	2.33333325
8.56346607	2.29411769
8.56770134	2.15686274
8.56770134	1.96078432
8.57156849	2.47058821
8.57572174	2.90196085
8.57985878	3.58823538
8.58398724	4.35294104
8.58398724	4.98039198
8.58809948	4.98039198
8.59212208	4.98039198
8.59622574	4.98039198
8.59622574	4.98039198
8.60034657	4.56862736
8.60441780	3.82352948
8.60862064	2.98039222
8.61261845	1.76470590
8.61675549	1.37254906
8.62085152	1.50980389
8.62503719	1.88235295
8.62503719	1.80392158
8.62898540	1.70588231
8.63303280	1.68627453
8.63716125	1.49019611
8.64129066	1.84313726
8.64528751	2.05882359
8.64948177	1.84313726
8.65352058	1.88235295
8.65352058	1.70588231
8.65766621	1.84313726
8.66164780	2.05882359
8.66576767	2.35294127
8.66991329	2.11764717
8.67409134	1.94117641
8.67821121	2.01960778
8.68220139	2.39215684
8.68220139	2.62745094
8.68630505	2.47058821
8.69047546	2.39215684
8.69458771	2.49019599
8.69458771	2.27450991
8.69855213	2.52941179
8.70269775	2.82352948
8.70676899	2.88235283
8.71092224	2.80392146
8.71092224	2.78431368
8.71492004	2.60784316
8.71903229	2.74509811
8.72319412	2.90196085
8.72319412	3.13725495
8.72728157	3.11764717
8.73141861	3.03921580
8.73562145	2.98039222
8.73961926	3.03921580
8.73961926	3.35294127
8.74372292	3.72549009
8.74785995	3.72549009
8.75198841	3.80392146
8.75198841	3.74509811
8.75597000	3.52941179
8.76009083	3.80392146
8.76423550	4.01960802
8.76829052	3.94117641
8.76829052	3.78431368
8.77229691	3.78431368
8.77640915	3.70588231
8.78054619	3.74509811
8.78054619	3.74509811
8.78467464	3.66666675
8.78874588	3.50980401
8.79281807	3.43137264
8.79693031	3.19607854
8.79693031	2.96078420
8.80110836	2.94117641
8.80515480	2.94117641
8.80923462	2.84313726
8.80923462	2.76470590
8.81334686	2.58823538
8.81744289	2.52941179
8.82157993	2.62745094
8.82554436	2.72549009
8.82968998	2.47058821
8.83378601	2.33333325
8.83793926	2.11764717
8.83793926	2.25490189
8.84191227	2.64705873
8.84606552	2.70588231
8.85021877	2.60784316
8.85425758	2.39215684
8.85848427	2.47058821
8.86260509	2.50980401
8.86656189	2.62745094
8.86656189	2.62745094
8.87070751	2.62745094
8.87485218	2.80392146
8.87884998	2.76470590
8.88301182	2.88235283
8.88714027	2.64705873
8.89122009	2.50980401
8.89534092	2.50980401
8.89534092	2.45098042
8.89928913	2.45098042
8.90339375	2.45098042
8.90754700	2.41176462
8.90754700	2.41176462
8.91166687	2.39215684
8.91565704	2.15686274
8.91978550	2.25490189
8.92400455	2.39215684
8.92400455	2.49019599
8.92808437	2.37254906
8.93208122	2.29411769
8.93621063	2.27450991
8.93621063	2.07843137
8.94035530	2.09803915
8.94441891	2.11764717
8.94854736	1.82352936
8.95252037	1.64705884
8.95252037	1.90196073
8.95665741	2.01960778
8.96079445	2.13725495
8.96490669	2.39215684
8.96490669	2.47058821
8.96888828	2.41176462
8.97310734	2.31372547
8.97722816	2.19607854
8.98134804	2.23529410
8.98134804	2.35294127
8.98534584	2.54901958
8.98958111	2.45098042
8.99358749	2.39215684
8.99358749	2.33333325
8.99773216	2.43137264
9.00185299	2.60784316
9.00583458	2.78431368
9.00991344	2.68627453
9.01401806	2.64705873
9.01815510	2.54901958
9.02216911	2.76470590
9.02216911	3.07843137
9.02626514	2.88235283
9.03040218	2.86274505
9.03454685	2.60784316
9.03872490	2.21568632
9.04271507	2.33333325
9.04683495	2.37254906
9.05098820	2.23529410
9.05098820	2.56862736
9.05492115	3.11764717
9.05908203	3.94117641
9.06322765	4.68627453
9.06735611	4.98039198
9.07140255	4.98039198
9.07552338	4.98039198
9.07961178	4.98039198
9.07961178	4.80392170
9.08371544	3.98039222
9.08782768	3.15686274
9.09198093	2.35294127
9.09198093	1.96078432
9.09596252	1.66666663
9.10011578	1.90196073
9.10421181	2.13725495
9.10838127	2.15686274
9.10838127	2.03921580
9.11237907	2.11764717
9.11654091	2.11764717
9.12067795	2.09803915
9.12067795	2.29411769
9.12479019	2.45098042
9.12876320	2.31372547
9.13288403	2.07843137
9.13698769	1.88235295
9.13698769	1.98039210
9.14110851	2.21568632
9.14509010	2.39215684
9.14924335	2.35294127
9.14924335	2.45098042
9.15333080	2.47058821
9.15749264	2.47058821
9.16158867	2.68627453
9.16557789	2.80392146
9.16557789	2.86274505
9.16973114	2.84313726
9.17377853	2.84313726
9.17788219	2.52941179
9.17788219	2.56862736
9.18196201	2.78431368
9.18606663	3.00000000
9.19024467	3.03921580
9.19429111	3.11764717
9.19429111	3.03921580
9.19838715	3.21568632
9.20252419	3.49019599
9.20656300	3.56862736
9.20656300	3.52941179
9.21062565	3.68627453
9.21477127	3.84313726
9.21880150	3.94117641
9.22296333	4.31372547
9.22708416	4.39215708
9.23122883	4.37254906
9.23534966	4.23529434
9.23534966	4.23529434
9.23933125	4.43137264
9.24345112	4.56862736
9.24758053	4.56862736
9.25172520	4.52941179
9.25565720	4.07843161
9.25985146	3.96078420
9.26395607	4.03921556
9.26395607	4.01960802
9.26810932	3.84313726
9.27209091	3.66666675
9.27622795	3.23529410
9.28033161	3.05882359
9.28446865	2.96078420
9.28860569	2.86274505
9.29253006	2.76470590
9.29253006	2.50980401
9.29669952	2.23529410
9.30085278	2.39215684
9.30498981	2.50980401
9.30498981	2.31372547
9.30894661	2.31372547
9.31308365	2.37254906
9.31722832	1.94117641
9.32140636	1.94117641
9.32140636	2.15686274
9.32538795	2.35294127
9.32965565	2.54901958
9.33362865	2.72549009
9.33362865	2.68627453
9.33774090	2.80392146
9.34170628	3.00000000
9.34583473	3.03921580
9.34998035	3.01960778
9.34998035	3.01960778
9.35403538	2.98039222
9.35825443	2.74509811
9.36233330	2.82352948
9.36233330	2.98039222
9.36633110	2.76470590
9.37046814	2.80392146
9.37459755	2.60784316
9.37873363	2.33333325
9.37873363	2.11764717
9.38276482	2.15686274
9.38690186	2.25490189
9.39104652	2.09803915
9.39104652	2.11764717
9.39519215	1.92156863
9.39913177	1.82352936
9.40322018	1.98039210
9.40734100	2.19607854
9.40734100	1.98039210
9.41148567	1.76470590
9.41558170	1.64705884
9.41957951	1.54901958
9.41957951	1.60784316
9.42374134	1.86274505
9.42782879	1.90196073
9.43199062	1.76470590
9.43596363	1.62745094
9.44010830	1.78431368
9.44417191	2.21568632
9.44831657	2.31372547
9.44831657	1.92156863
9.45231438	1.90196073
9.45653343	2.00000000
9.46053982	2.05882359
9.46462727	2.29411769
9.46862507	2.09803915
9.47280312	1.88235295
9.47690678	1.70588231
9.47690678	1.70588231
9.48106003	1.88235295
9.48518944	2.07843137
9.48921108	1.98039210
9.48921108	1.88235295
9.49331570	1.82352936
9.49741173	1.82352936
9.50153255	2.09803915
9.50552940	2.23529410
9.50552940	2.15686274
9.50969982	2.01960778
9.51381969	1.98039210
9.51794052	1.78431368
9.51794052	1.80392158
9.52185631	1.90196073
9.52601814	2.21568632
9.53014660	2.50980401
9.53426743	3.23529410
9.53426743	3.86274505
9.53838825	4.64705896
9.54250050	4.98039198
9.54656315	4.98039198
9.54656315	4.98039198
9.55070019	4.98039198
9.55478859	4.50980377
9.55883503	3.39215684
9.56294727	2.92156863
9.56294727	2.23529410
9.56707668	1.66666663
9.57114792	1.25490201
9.57534981	1.00000000
9.57534981	0.86274511
9.57931519	1.25490201
9.58351803	1.45098042
9.58761406	1.52941179
9.59172630	1.33333337
9.59172630	1.15686274
9.59570694	1.13725495
9.59985256	1.17647064
9.60396481	1.39215684
9.60396481	1.50980389
9.60809326	1.58823526
9.61204243	1.45098042
9.61614609	1.23529410
9.62026691	1.54901958
9.62445354	1.64705884
9.62859821	1.56862748
9.63258743	1.47058821
9.63258743	1.52941179
9.63672447	1.17647064
9.64087009	1.39215684
9.64497375	1.31372547
9.64894676	1.11764705
9.65301895	1.31372547
9.65718842	1.33333337
9.66126823	1.43137252
9.66126823	1.50980389
9.66529846	1.52941179
9.66953373	1.47058821
9.67353916	1.60784316
9.67771721	1.98039210
9.68184662	2.29411769
9.68582726	2.52941179
9.68991566	2.58823538
9.68991566	2.78431368
9.69406891	2.64705873
9.69822216	2.80392146
9.70234299	3.13725495
9.70234299	3.35294127
9.70630741	3.39215684
9.71050167	3.37254906
9.71461391	3.31372547
9.71870995	3.09803915
9.71870995	3.37254906
9.72270012	3.49019599
9.72686958	3.39215684
9.73095703	3.19607854
9.73095703	3.17647052
9.73502064	2.90196085
9.73903465	2.74509811
9.74313068	2.90196085
9.74728394	2.88235283
9.74728394	2.56862736
9.75145340	2.45098042
9.75558281	2.27450991
9.75958061	2.05882359
9.75958061	2.05882359
9.76370049	1.90196073
9.76782990	1.68627453
9.77180290	1.58823526
9.77589035	1.60784316
9.77589035	1.49019611
9.78002739	1.58823526
9.78412342	1.64705884
9.78831768	1.58823526
9.78831768	1.33333337
9.79227448	1.35294116
9.79655838	1.25490201
9.80058956	1.33333337
9.80467701	1.60784316
9.80467701	1.58823526
9.80870724	1.52941179
9.81281185	1.52941179
9.81695652	1.60784316
9.81695652	1.60784316
9.82102013	1.66666663
9.82521439	1.82352936
9.82920361	1.86274505
9.83330822	1.64705884
9.83747005	1.39215684
9.84160709	1.45098042
9.84571075	1.62745094
9.84571075	1.39215684
9.84969997	1.37254906
9.85377979	1.13725495
9.85793304	0.80392158
9.86201286	0.94117647
9.86603546	0.98039216
9.87020493	1.00000000
9.87435055	0.94117647
9.87435055	0.96078432
9.87847042	0.94117647
9.88259125	0.94117647
9.88657284	0.84313726
9.88657284	0.84313726
9.89072609	0.90196079
9.89485455	0.84313726
9.89879513	0.80392158
9.90290737	1.00000000
9.90290737	1.11764705
9.90701199	1.07843137
9.91115665	0.96078432
9.91528511	0.86274511
9.91528511	0.62745100
9.91926670	0.82352942
9.92342854	1.15686274
9.92754078	1.19607842
9.93165302	0.88235295
9.93165302	0.70588237
9.93571663	0.66666669
9.93983650	1.00000000
9.94395733	1.29411769
9.94395733	1.21568632
9.94809437	1.01960790
9.95222282	1.01960790
9.95619678	0.94117647
9.96031666	1.03921568
9.96031666	1.39215684
9.96442890	1.58823526
9.96850872	1.41176474
9.97267056	1.25490201
9.97267056	1.03921568
9.97667599	1.07843137
9.98075581	1.33333337
9.98490143	1.50980389
9.98907089	1.25490201
9.98907089	0.98039216
9.99302769	0.60784316
9.99720573	0.29411766
10.00135040	0.45098040
10.00135040	0.39215687
10.00533199	0.33333334
10.00959206	0.62745100
10.01358128	1.33333337
10.01770210	3.01960778
10.02190399	4.05882359
10.02581978	4.98039198
10.02988338	4.98039198
10.02988338	4.98039198
10.03402901	4.98039198
10.03818226	4.33333349
10.04213905	3.49019599
10.04629230	1.74509799
10.05041218	1.13725495
10.05453300	0.70588237
10.05872726	0.47058824
10.05872726	0.54901963
10.06270027	0.74509805
10.06684589	0.90196079
10.07088470	0.84313726
10.07510281	0.64705884
10.07907677	0.74509805
10.08321285	1.03921568
10.08731747	1.11764705
10.08731747	0.96078432
10.09141350	0.90196079
10.09557533	0.90196079
10.09958935	0.92156863
10.09958935	1.11764705
10.10370159	1.21568632
10.10785484	1.21568632
10.11195946	1.29411769
10.11594868	1.25490201
10.11594868	1.09803927
10.12010193	1.23529410
10.12414837	1.45098042
10.12829399	1.49019611
10.12829399	1.39215684
10.13231659	1.47058821
10.13658428	1.41176474
10.14059830	1.64705884
10.14471054	1.86274505
10.14471054	1.66666663
10.14865112	1.41176474
10.15275478	1.43137252
10.15691662	1.58823526
10.15691662	1.74509799
10.16098785	2.17647052
10.16512489	2.25490189
10.16913128	2.15686274
10.17330933	2.15686274
10.17330933	2.03921580
10.17744541	1.98039210
10.18149281	2.25490189
10.18571186	2.68627453
10.18571186	2.74509811
10.18969250	2.80392146
10.19382191	2.74509811
10.19802380	2.50980401
10.20208740	2.54901958
10.20208740	2.66666675
10.20605278	2.64705873
10.21014881	2.78431368
10.21426105	2.64705873
10.21426105	2.60784316
10.21844673	2.54901958
10.22260857	2.58823538
10.22657299	2.56862736
10.23070240	2.23529410
10.23482227	1.86274505
10.23882008	1.60784316
10.24291611	1.58823526
10.24291611	1.66666663
10.24703693	1.50980389
10.25120640	1.49019611
10.25531864	1.41176474
10.25930023	1.41176474
10.26344585	1.54901958
10.26757431	1.43137252
10.27173615	1.11764705
10.27173615	0.86274511
10.27573395	0.64705884
10.27983761	0.70588237
10.28394985	0.94117647
10.28394985	1.29411769
10.28809547	1.17647064
10.29219913	1.09803927
10.29618931	0.92156863
10.30035019	0.94117647
10.30035019	1.07843137
10.30443859	1.43137252
10.30860806	1.50980389
10.31257248	1.35294116
10.31257248	1.39215684
10.31670952	1.25490201
10.32087135	1.25490201
10.32500839	1.43137252
10.32911301	1.43137252
10.32911301	1.41176474
10.33313465	1.31372547
10.33715725	0.76470590
10.34126091	0.62745100
10.34126091	0.58823532
10.34539032	0.49019608
10.34951019	0.13725491
10.35353279	0.05882353
10.35768604	0.03921569
10.35768604	0.13725491
10.36183167	0.23529412
10.36582088	0.17647059
10.36992550	0.17647059
10.36992550	0.21568628
10.37409496	0.49019608
10.37820721	0.41176471
10.38219643	0.72549021
10.38631725	0.92156863
10.38631725	0.88235295
10.39044571	0.82352942
10.39458275	0.78431374
10.39874458	0.80392158
10.39874458	1.01960790
10.40272617	1.07843137
10.40682220	0.96078432
10.41094208	0.86274511
10.41509628	0.76470590
10.41906929	0.78431374
10.42316532	0.82352942
10.42725277	1.07843137
10.42725277	1.01960790
10.43138981	0.98039216
10.43555164	0.86274511
10.43957329	0.86274511
10.44371033	1.29411769
10.44784737	1.29411769
10.45196819	1.21568632
10.45593262	1.15686274
10.45593262	1.05882359
10.46003723	1.27450979
10.46415806	1.19607842
10.46825409	1.21568632
10.47228432	0.98039216
10.47653580	0.90196079
10.48050117	1.11764705
10.48462963	1.41176474
10.48462963	1.52941179
10.48881531	1.47058821
10.49280548	1.17647064
10.49695015	0.68627453
10.49695015	0.70588237
10.50108719	1.35294116
10.50521564	2.13725495
10.50919724	2.92156863
10.51330948	3.37254906
10.51330948	3.78431368
10.51746273	4.15686274
10.52161598	4.43137264
10.52575302	4.39215708
10.52575302	3.80392146
10.52970982	2.78431368
10.53382206	1.68627453
10.53795147	0.74509805
10.54200649	0.56862748
10.54200649	0.80392158
10.54602814	1.03921568
10.55013275	0.92156863
10.55429459	0.82352942
10.55429459	0.56862748
10.55843925	0.88235295
10.56258488	1.15686274
10.56659031	1.29411769
10.57069492	1.35294116
10.57069492	1.17647064
10.57485580	1.01960790
10.57896900	0.96078432
10.58291721	1.11764705
10.58291721	1.27450979
10.58704567	1.21568632
10.59114170	1.31372547
10.59529495	1.39215684
10.59929276	1.25490201
10.59929276	1.49019611
10.60351181	1.72549021
10.60755825	1.70588231
10.61163807	1.68627453
10.61163807	1.66666663
10.61570930	1.49019611
10.61981392	1.68627453
10.62397575	1.94117641
10.62808800	1.74509799
10.63221645	1.80392158
10.63619804	1.86274505
10.64031887	1.90196073
10.64031887	2.09803915
10.64442253	2.17647052
10.64858437	2.11764717
10.65258217	2.11764717
10.65671062	2.09803915
10.66079044	2.54901958
10.66490269	2.82352948
10.66900730	2.72549009
10.66900730	2.74509811
10.67303753	2.90196085
10.67714977	2.78431368
10.68125343	2.82352948
10.68125343	3.09803915
10.68541527	3.31372547
10.68956852	3.09803915
10.69357491	2.98039222
10.69770336	2.84313726
10.69770336	2.98039222
10.70184040	3.17647052
10.70582199	3.23529410
10.70995045	2.94117641
10.70995045	2.72549009
10.71407127	2.60784316
10.71821594	2.50980401
10.72218895	2.54901958
10.72630215	2.39215684
10.72630215	2.15686274
10.73038101	2.05882359
10.73452663	1.86274505
10.73864746	1.70588231
10.73864746	1.86274505
10.74266148	1.66666663
10.74677372	1.56862748
10.75087738	1.43137252
10.75506401	1.50980389
10.75506401	1.15686274
10.75902843	1.21568632
10.76321507	1.39215684
10.76733589	1.49019611
10.76733589	1.49019611
10.77152157	1.43137252
10.77559280	1.39215684
10.77956581	1.29411769
10.78368664	1.37254906
10.78368664	1.62745094
10.78777409	1.66666663
10.79189491	1.60784316
10.79600716	1.72549021
10.79600716	1.62745094
10.80000496	1.64705884
10.80415058	1.78431368
10.80828762	1.80392158
10.81238365	1.66666663
10.81652832	1.47058821
10.82062435	1.39215684
10.82472897	1.31372547
10.82472897	1.41176474
10.82884121	1.27450979
10.83281422	1.07843137
10.83695889	0.82352942
10.84108829	1.15686274
10.84521675	1.19607842
10.84919834	0.64705884
10.85328579	0.21568628
10.85328579	0.31372550
10.85739803	0.49019608
10.86151028	0.76470590
10.86563110	0.98039216
10.86964512	0.80392158
10.87378216	0.80392158
10.87787819	0.58823532
10.88203144	0.68627453
10.88203144	0.82352942
10.88607025	0.82352942
10.89023972	0.68627453
10.89431953	0.66666669
10.89431953	0.41176471
10.89845657	0.58823532
10.90258503	1.09803927
10.90651703	1.27450979
10.91071224	1.21568632
10.91071224	1.07843137
10.91479111	0.88235295
10.91876411	0.90196079
10.92294216	1.15686274
10.92294216	1.23529410
10.92709541	1.25490201
10.93115902	1.47058821
10.93535328	1.35294116
10.93949890	1.09803927
10.93949890	1.09803927
10.94357014	1.21568632
10.94760036	1.47058821
10.95161438	1.45098042
10.95161438	1.54901958
10.95571899	1.25490201
10.95981503	1.43137252
10.96394348	1.72549021
10.96806431	1.78431368
10.96806431	1.43137252
10.97218418	1.09803927
10.97614956	1.00000000
10.98025322	1.00000000
10.98025322	1.50980389
10.98437405	2.11764717
10.98851109	2.58823538
10.99251747	3.27450991
10.99664593	4.29411745
11.00075054	4.80392170
11.00493622	4.98039198
11.00908947	4.92156839
11.00908947	4.05882359
11.01305485	3.19607854
11.01719189	2.17647052
11.02125454	1.47058821
11.02546501	1.13725495
11.02957726	0.92156863
11.03357506	0.92156863
11.03768826	1.00000000
11.03768826	1.19607842
11.04185772	1.29411769
11.04582214	1.31372547
11.04994297	1.33333337
11.05412960	1.33333337
11.05820847	1.19607842
11.06231308	1.52941179
11.06633568	1.72549021
11.06633568	1.66666663
11.07043934	1.58823526
11.07461739	1.56862748
11.07869720	1.35294116
11.07869720	1.45098042
11.08269501	1.58823526
11.08683205	1.52941179
11.09102631	1.43137252
11.09512234	1.62745094
11.09512234	1.49019611
11.09925842	1.49019611
11.10323238	1.56862748
11.10735226	1.62745094
11.10735226	1.66666663
11.11144066	1.64705884
11.11557770	1.56862748
11.11957550	1.56862748
11.12370396	1.98039210
11.12370396	2.25490189
11.12784863	2.09803915
11.13186264	2.23529410
11.13599968	2.21568632
11.13599968	2.15686274
11.14007187	2.47058821
11.14420033	2.64705873
11.14832878	2.62745094
11.15244961	2.76470590
11.15244961	2.78431368
11.15656185	2.60784316
11.16056824	2.84313726
11.16465569	3.03921580
11.16465569	3.21568632
11.16873550	3.19607854
11.17279053	3.15686274
11.17688656	3.09803915
11.18099880	3.15686274
11.18099880	3.43137264
11.18511105	3.72549009
11.18921566	3.37254906
11.19322109	3.07843137
11.19322109	2.90196085
11.19743156	2.88235283
11.20157719	2.70588231
11.20568085	2.62745094
11.20968723	2.49019599
11.21380806	2.27450991
11.21793652	2.07843137
11.22208977	2.11764717
11.22208977	2.13725495
11.22610378	2.31372547
11.23024940	2.19607854
11.23431206	1.98039210
11.23844051	1.96078432
11.24257755	2.01960778
11.24655914	2.11764717
11.25064659	1.94117641
11.25064659	1.96078432
11.25476742	1.90196073
11.25888824	1.84313726
11.26289368	2.05882359
11.26289368	2.37254906
11.26705551	2.35294127
11.27115154	2.17647052
11.27533817	2.05882359
11.27945805	1.78431368
11.27945805	1.96078432
11.28357029	2.25490189
11.28751087	2.27450991
11.29164028	2.00000000
11.29164028	1.88235295
11.29561329	1.68627453
11.29975796	1.60784316
11.30387878	1.52941179
11.30800724	1.58823526
11.30800724	1.45098042
11.31213665	1.58823526
11.31615829	1.56862748
11.32026291	1.54901958
11.32026291	1.68627453
11.32447338	1.52941179
11.32856941	1.31372547
11.33256721	1.37254906
11.33667946	1.58823526
11.33667946	1.54901958
11.34083271	1.74509799
11.34495354	2.00000000
11.34908199	1.90196073
11.34908199	1.66666663
11.35311222	1.68627453
11.35724163	1.35294116
11.36133766	1.49019611
11.36544132	1.66666663
11.36544132	1.78431368
11.36951256	1.66666663
11.37350273	1.58823526
11.37763977	1.37254906
11.37763977	1.43137252
11.38175201	1.84313726
11.38579082	1.92156863
11.38993549	1.64705884
11.39407253	1.70588231
11.39821815	1.64705884
11.40233040	1.72549021
11.40630341	1.68627453
11.40630341	1.49019611
11.41045666	1.50980389
11.41454411	1.58823526
11.41864014	1.49019611
11.42261314	2.13725495
11.42675877	2.15686274
11.43088722	1.86274505
11.43499184	1.92156863
11.43499184	1.86274505
11.43901348	1.84313726
11.44315052	1.98039210
11.44732094	1.92156863
11.45144939	1.52941179
11.45556164	1.62745094
11.45955944	2.09803915
11.46368027	3.05882359
11.46368027	4.01960802
11.46780872	4.43137264
11.47192097	4.98039198
11.47607422	4.98039198
11.47607422	4.98039198
11.48001480	4.98039198
11.48411083	4.98039198
11.48826408	3.96078420
11.49239254	2.86274505
11.49239254	2.07843137
11.49649715	1.45098042
11.50048637	1.50980389
11.50465679	1.47058821
11.50465679	1.49019611
11.50883389	1.27450979
11.51280785	1.35294116
11.51694393	1.27450979
11.52099133	1.47058821
11.52099133	1.88235295
11.52521038	2.11764717
11.52919102	2.05882359
11.53332043	1.98039210
11.53332043	1.92156863
11.53735065	1.80392158
11.54152870	2.01960778
11.54561615	2.21568632
11.54963017	2.23529410
11.54963017	2.03921580
11.55376720	1.92156863
11.55788803	1.82352936
11.56201649	2.11764717
11.56201649	2.29411769
11.56601429	2.21568632
11.57018375	1.90196073
11.57432938	1.84313726
11.57845020	1.86274505
11.57845020	2.00000000
11.58258724	2.19607854
11.58654404	2.25490189
11.59070492	2.29411769
11.59070492	2.33333325
11.59482574	2.35294127
11.59895420	2.21568632
11.60298538	2.52941179
11.60711384	2.49019599
11.61119366	2.35294127
11.61530590	2.50980401
11.61945915	2.64705873
11.61945915	3.00000000
11.62357140	3.19607854
11.62756920	3.15686274
11.63161564	2.98039222
11.63576889	3.09803915
11.63984871	3.41176462
11.64388752	3.49019599
11.64807415	3.58823538
11.64807415	3.60784316
11.65220261	3.64705873
11.65618420	3.70588231
11.66029644	3.64705873
11.66029644	3.70588231
11.66439247	3.84313726
11.66850471	3.58823538
11.67255116	3.35294127
11.67662239	3.25490189
11.67662239	2.82352948
11.68075943	2.82352948
11.68487263	2.94117641
11.68900108	2.70588231
11.68900108	2.43137264
11.69303131	2.39215684
11.69718456	2.19607854
11.70131397	2.37254906
11.70542622	2.39215684
11.70542622	2.29411769
11.70957088	2.07843137
11.71356869	1.98039210
11.71768951	1.86274505
11.71768951	1.84313726
11.72179317	2.01960778
11.72597980	2.15686274
11.72998524	1.96078432
11.73408127	2.03921580
11.73408127	2.01960778
11.73818588	2.00000000
11.74232292	2.25490189
11.74631214	2.58823538
11.74631214	2.70588231
11.75050640	2.64705873
11.75451279	2.68627453
11.75865746	2.43137264
11.76274490	2.54901958
11.76274490	2.86274505
11.76677608	2.90196085
11.77087975	2.72549009
11.77510738	2.52941179
11.77510738	1.98039210
11.77920341	1.82352936
11.78318405	2.01960778
11.78730488	2.11764717
11.79140949	1.78431368
11.79549694	1.66666663
11.79951954	1.62745094
11.80363178	1.92156863
11.80363178	2.00000000
11.80777645	2.00000000
11.81187248	1.74509799
11.81602573	1.62745094
11.82021999	1.76470590
11.82421780	1.74509799
11.82831383	1.94117641
11.83244324	1.96078432
11.83244324	1.86274505
11.83657169	1.64705884
11.84057713	1.66666663
11.84469032	2.01960778
11.84882641	2.00000000
11.85284901	1.80392158
11.85698605	1.50980389
11.86105728	1.50980389
11.86105728	1.72549021
11.86517811	1.74509799
11.86925793	1.62745094
11.87324715	1.62745094
11.87324715	1.70588231
11.87738419	1.80392158
11.88149643	2.15686274
11.88564205	2.21568632
11.88968849	2.17647052
11.88968849	2.05882359
11.89381695	2.07843137
11.89793015	1.86274505
11.90203381	2.05882359
11.90203381	2.07843137
11.90604782	2.21568632
11.91016865	2.05882359
11.91432190	1.98039210
11.91839314	1.78431368
11.91839314	1.80392158
11.92249775	2.15686274
11.92648697	2.31372547
11.93060780	1.94117641
11.93060780	1.74509799
11.93476105	2.15686274
11.93892288	2.92156863
11.94286251	3.86274505
11.94701576	4.45098019
11.94701576	4.86274529
11.95117760	4.98039198
11.95532322	4.98039198
11.95943546	4.98039198
11.95943546	4.98039198
11.96357250	4.43137264
11.96755314	3.31372547
11.97166634	2.31372547
11.97581959	1.66666663
11.97581959	1.29411769
11.97975922	1.31372547
11.98388004	1.60784316
11.98798466	1.56862748
11.98798466	1.27450979
11.99212933	1.37254906
11.99612713	1.27450979
12.00024796	1.29411769
12.00449944	1.72549021
12.00852203	1.66666663
12.01269150	1.78431368
12.01668930	1.68627453
12.01668930	1.49019611
12.02073574	1.70588231
12.02495480	1.92156863
12.02906704	1.92156863
12.03306484	1.76470590
12.03717709	1.70588231
12.04130650	1.96078432
12.04540253	2.17647052
12.04540253	2.25490189
12.04948997	1.90196073
12.05355358	1.74509799
12.05771446	1.76470590
12.05771446	1.86274505
12.06181049	2.03921580
12.06593990	2.13725495
12.06993675	2.11764717
12.07407379	2.17647052
12.07407379	2.05882359
12.07821083	2.01960778
12.08222485	2.35294127
12.08641911	2.50980401
12.08641911	2.35294127
12.09058094	2.39215684
12.09454632	2.50980401
12.09869099	2.49019599
12.10282803	2.74509811
12.10282803	3.01960778
12.10672760	3.13725495
12.11086464	3.13725495
12.11505032	3.23529410
12.11505032	3.27450991
12.11920357	3.31372547
12.12319374	3.52941179
12.12730598	3.64705873
12.13144302	3.49019599
12.13144302	3.43137264
12.13554668	3.29411769
12.13954449	3.17647052
12.14361572	3.31372547
12.14361572	3.29411769
12.14776897	3.11764717
12.15193081	3.11764717
12.15595341	2.84313726
12.16007328	2.50980401
12.16007328	2.47058821
12.16418648	2.58823538
12.16828251	2.66666675
12.17243576	2.13725495
12.17243576	1.86274505
12.17649078	1.66666663
12.18051243	1.92156863
12.18461704	2.15686274
12.18879509	2.09803915
12.19276810	1.80392158
12.19687176	1.62745094
12.20097637	1.52941179
12.20097637	1.80392158
12.20522022	2.11764717
12.20919323	2.03921580
12.21330547	1.96078432
12.21757317	1.62745094
12.22148895	1.94117641
12.22569942	2.33333325
12.22982025	2.41176462
12.22982025	2.27450991
12.23385048	2.17647052
12.23795509	2.21568632
12.24205112	2.35294127
12.24617958	2.72549009
12.25019360	2.62745094
12.25430584	2.49019599
12.25848389	2.11764717
12.25848389	2.01960778
12.26247406	2.11764717
12.26650429	2.05882359
12.27059174	1.72549021
12.27059174	1.47058821
12.27483559	1.31372547
12.27894783	1.41176474
12.28293705	1.50980389
12.28705788	1.66666663
12.28705788	1.64705884
12.29118633	1.39215684
12.29523373	1.31372547
12.29936218	1.39215684
12.29936218	1.64705884
12.30349922	1.68627453
12.30751324	1.70588231
12.31160927	1.64705884
12.31573772	1.45098042
12.31573772	1.54901958
12.31977654	1.60784316
12.32393837	1.82352936
12.32805061	1.84313726
12.32805061	1.86274505
12.33218765	1.74509799
12.33616924	1.66666663
12.34031391	1.64705884
12.34456539	2.00000000
12.34456539	2.21568632
12.34856319	2.09803915
12.35256100	2.01960778
12.35672283	2.00000000
12.35672283	2.07843137
12.36085987	2.21568632
12.36493111	2.37254906
12.36905193	2.31372547
12.37308216	2.29411769
12.37308216	2.27450991
12.37717819	2.00000000
12.38125801	2.00000000
12.38536167	2.21568632
12.38536167	2.15686274
12.38952351	2.03921580
12.39351273	2.00000000
12.39767456	1.92156863
12.40177059	2.19607854
12.40594006	2.47058821
12.40992928	2.35294127
12.41404247	2.11764717
12.41404247	1.72549021
12.41814613	1.60784316
12.42229176	2.13725495
12.42636299	2.84313726
12.43051624	4.01960802
12.43449783	4.72549009
12.43861771	4.98039198
12.44274712	4.98039198
12.44274712	4.98039198
12.44676876	4.98039198
12.45092297	4.27450991
12.45508385	3.35294127
12.45508385	2.62745094
12.45918846	2.17647052
12.46317768	2.09803915
12.46729851	1.96078432
12.47139454	1.66666663
12.47139454	1.56862748
12.47562122	1.45098042
12.47962761	1.49019611
12.48369884	1.50980389
12.48369884	1.54901958
12.48782730	1.54901958
12.49192333	1.66666663
12.49606037	1.72549021
12.50004959	1.50980389
12.50004959	1.58823526
12.50417042	1.84313726
12.50833225	1.92156863
12.51241970	1.84313726
12.51241970	1.70588231
12.51655674	1.52941179
12.52055454	1.74509799
12.52469158	1.94117641
12.52882004	2.09803915
12.52882004	1.88235295
12.53285885	2.03921580
12.53696346	1.98039210
12.54114056	2.01960778
12.54114056	2.15686274
12.54522038	2.17647052
12.54932499	2.03921580
12.55329800	2.25490189
12.55756569	2.23529410
12.55756569	2.21568632
12.56157970	2.72549009
12.56566811	3.00000000
12.56981277	3.01960778
12.56981277	2.92156863
12.57382679	2.88235283
12.57792282	2.74509811
12.58209324	3.09803915
12.58618069	3.43137264
12.59024429	3.35294127
12.59425831	3.29411769
12.59839535	3.15686274
12.59839535	3.33333325
12.60255623	3.68627453
12.60657024	3.82352948
12.61063385	3.72549009
12.61484432	3.56862736
12.61885071	3.47058821
12.62292194	3.64705873
12.62699318	3.80392146
12.62699318	3.66666675
12.63115501	3.56862736
12.63525867	3.41176462
12.63944530	3.07843137
12.64355755	3.17647052
12.64754677	3.11764717
12.65168381	2.94117641
12.65577984	2.68627453
12.65577984	2.29411769
12.65979385	2.50980401
12.66391468	2.66666675
12.66802692	2.62745094
12.66802692	2.43137264
12.67212296	2.11764717
12.67608738	1.94117641
12.68023300	2.05882359
12.68448448	2.21568632
12.68448448	2.43137264
12.68853951	2.37254906
12.69264412	2.23529410
12.69668293	2.09803915
12.69668293	2.03921580
12.70081139	2.23529410
12.70487404	2.58823538
12.70906925	2.66666675
12.71318913	2.62745094
12.71318913	2.68627453
12.71717930	2.60784316
12.72137356	2.80392146
12.72541142	3.00000000
12.72541142	3.09803915
12.72956562	2.92156863
12.73348904	2.94117641
12.73760986	2.96078420
12.74173069	2.98039222
12.74173069	3.09803915
12.74584293	3.25490189
12.74984074	3.11764717
12.75396919	3.00000000
12.75396919	2.88235283
12.75814724	2.88235283
12.76230907	2.98039222
12.76630592	3.07843137
12.77056599	2.76470590
12.77056599	2.47058821
12.77455521	2.31372547
12.77868462	2.21568632
12.78279686	2.31372547
12.78279686	2.49019599
12.78681087	2.33333325
12.79093170	2.07843137
12.79501152	2.01960778
12.79912376	2.01960778
12.80317020	2.50980401
12.80732346	2.60784316
12.81141949	2.33333325
12.81141949	2.09803915
12.81554794	2.01960778
12.81957054	1.94117641
12.82370758	2.19607854
12.82781982	2.21568632
12.83183384	2.15686274
12.83602047	1.94117641
12.84020615	1.86274505
12.84020615	2.21568632
12.84416294	2.64705873
12.84829998	2.64705873
12.85242844	2.58823538
12.85242844	2.56862736
12.85652447	2.41176462
12.86049747	2.54901958
12.86459351	2.86274505
12.86873055	2.92156863
12.86873055	2.60784316
12.87275314	2.45098042
12.87686539	2.47058821
12.88101101	2.54901958
12.88101101	2.72549009
12.88518906	2.76470590
12.88930130	2.56862736
12.89328194	2.52941179
12.89755821	2.45098042
12.89755821	2.35294127
12.90154839	2.37254906
12.90566063	2.64705873
12.90980530	2.31372547
12.90980530	2.13725495
12.91377831	1.94117641
12.91791534	1.82352936
12.92209339	2.35294127
12.92621422	3.21568632
12.92621422	3.94117641
12.93017101	4.98039198
12.93429947	4.98039198
12.93845272	4.98039198
12.93845272	4.98039198
12.94255733	4.98039198
12.94655514	4.98039198
12.95063496	4.49019623
12.95480442	3.64705873
12.95480442	2.76470590
12.95887566	2.13725495
12.96289825	2.00000000
12.96703529	2.00000000
12.96703529	1.76470590
12.97112274	1.70588231
12.97532558	1.66666663
12.97944546	1.41176474
12.98352528	1.66666663
12.98752308	1.58823526
12.99161911	1.60784316
12.99577236	1.74509799
12.99577236	1.45098042
12.99973774	1.58823526
13.00388241	1.90196073
13.00803566	1.98039210
13.01209068	2.11764717
13.01629353	2.13725495
13.02030754	2.07843137
13.02458382	2.29411769
13.02458382	2.29411769
13.02854824	2.27450991
13.03267765	2.29411769
13.03666687	2.31372547
13.03666687	2.15686274
13.04081249	2.37254906
13.04494858	2.50980401
13.04909420	2.64705873
13.05319786	2.62745094
13.05319786	2.70588231
13.05717945	2.60784316
13.06129169	2.86274505
13.06544495	3.05882359
13.06544495	3.17647052
13.06947613	3.13725495
13.07351494	3.15686274
13.07760239	3.07843137
13.08174706	3.13725495
13.08174706	3.35294127
13.08588409	3.47058821
13.08993912	3.33333325
13.09404373	3.39215684
13.09404373	3.49019599
13.09817219	3.45098042
13.10230923	3.60784316
13.10629082	3.76470590
13.11050987	3.64705873
13.11050987	3.70588231
13.11451530	3.70588231
13.11860371	3.62745094
13.12276459	3.78431368
13.12276459	3.56862736
13.12676239	3.47058821
13.13083363	3.60784316
13.13497925	3.45098042
13.13914871	3.17647052
13.13914871	3.17647052
13.14317131	3.17647052
13.14729977	3.29411769
13.15142059	3.31372547
13.15142059	3.13725495
13.15553284	2.74509811
13.15969467	2.62745094
13.16366768	2.78431368
13.16777992	2.39215684
13.17196560	2.35294127
13.17609501	2.47058821
13.18006802	2.31372547
13.18006802	2.25490189
13.18417168	2.41176462
13.18830872	2.49019599
13.19234753	2.31372547
13.19648457	2.21568632
13.20051479	2.23529410
13.20461941	2.56862736
13.20876408	2.64705873
13.20876408	2.47058821
13.21293449	2.50980401
13.21690750	2.43137264
13.22097015	2.58823538
13.22517300	2.86274505
13.22931004	2.92156863
13.23329163	2.92156863
13.23747730	2.96078420
13.23747730	2.64705873
13.24149990	2.84313726
13.24560356	3.07843137
13.24972439	3.01960778
13.24972439	2.96078420
13.25373840	3.03921580
13.25789165	2.68627453
13.26198006	2.70588231
13.26612473	2.76470590
13.26612473	2.80392146
13.27015495	2.41176462
13.27432537	2.29411769
13.27841282	1.98039210
13.27841282	2.05882359
13.28255749	2.29411769
13.28653908	2.27450991
13.29067612	2.13725495
13.29480457	2.21568632
13.29480457	2.03921580
13.29886818	1.84313726
13.30287457	1.98039210
13.30697823	2.17647052
13.30697823	2.17647052
13.31109047	2.00000000
13.31523609	1.94117641
13.31936455	1.88235295
13.32355881	2.13725495
13.32355881	2.19607854
13.32749081	2.19607854
13.33166122	2.07843137
13.33578968	2.00000000
13.33578968	1.80392158
13.33979511	1.74509799
13.34390831	1.86274505
13.34805298	2.15686274
13.35219002	2.21568632
13.35219002	2.25490189
13.35614681	2.25490189
13.36027527	2.17647052
13.36459255	2.35294127
13.36459255	2.58823538
13.36856556	2.54901958
13.37267780	2.43137264
13.37666798	2.33333325
13.38081264	2.54901958
13.38491726	2.47058821
13.38900471	2.41176462
13.39310932	2.35294127
13.39310932	2.31372547
13.39712334	2.15686274
13.40123558	2.43137264
13.40541363	2.49019599
13.40956688	1.98039210
13.41353989	1.92156863
13.41768456	1.76470590
13.42178059	1.94117641
13.42178059	2.78431368
13.42589378	3.39215684
13.42988300	3.98039222
13.43397903	4.49019623
13.43813229	4.98039198
13.44225311	4.98039198
13.44622612	4.98039198
13.45047760	4.23529434
13.45047760	3.47058821
13.45449162	2.66666675
13.45869446	1.90196073
13.46278191	1.64705884
13.46278191	1.54901958
13.46677971	1.45098042
13.47085953	1.21568632
13.47503757	1.37254906
13.47915745	1.47058821
13.47915745	1.45098042
13.48316383	1.54901958
13.48737431	1.54901958
13.49159336	1.52941179
13.49159336	1.58823526
13.49555779	1.50980389
13.49967861	1.45098042
13.50368500	1.72549021
13.50780487	1.96078432
13.50780487	2.03921580
13.51185989	1.84313726
13.51598072	1.62745094
13.52013397	1.47058821
13.52013397	1.78431368
13.52412319	2.23529410
13.52826023	2.29411769
13.53243828	2.19607854
13.53656769	2.21568632
13.53656769	2.15686274
13.54057312	2.15686274
13.54468536	2.21568632
13.54881477	2.35294127
13.54881477	2.39215684
13.55288601	2.35294127
13.55689144	2.33333325
13.56097984	2.39215684
13.56512451	2.72549009
13.56512451	3.05882359
13.56922054	2.90196085
13.57323456	2.86274505
13.57747841	2.90196085
13.57747841	2.84313726
13.58151722	2.96078420
13.58569431	3.37254906
13.58980751	3.37254906
13.59378815	3.50980401
13.59787655	3.72549009
13.60205460	3.84313726
13.60614967	3.88235283
13.60614967	3.84313726
13.61015606	3.64705873
13.61423588	3.72549009
13.61834812	3.45098042
13.62246895	3.62745094
13.62644958	3.74509811
13.63059521	3.66666675
13.63472366	3.66666675
13.63472366	3.50980401
13.63890171	3.31372547
13.64305496	3.29411769
13.64704418	3.29411769
13.64704418	3.13725495
13.65116501	3.00000000
13.65526962	2.74509811
13.65943050	2.49019599
13.66354370	2.70588231
13.66354370	2.62745094
13.66754055	2.72549009
13.67166138	2.54901958
13.67580700	2.52941179
13.67580700	2.47058821
13.67981243	2.41176462
13.68394184	2.82352948
13.68803692	2.86274505
13.69217396	2.72549009
13.69217396	2.70588231
13.69628716	2.62745094
13.70028400	2.52941179
13.70448685	2.68627453
13.70448685	2.76470590
13.70848465	2.74509811
13.71258926	2.92156863
13.71661949	2.84313726
13.72071552	2.52941179
13.72071552	2.39215684
13.72494221	2.49019599
13.72904682	2.50980401
13.73317528	2.62745094
13.73317528	2.56862736
13.73714066	2.27450991
13.74126053	2.35294127
13.74533176	2.41176462
13.74947739	2.45098042
13.74947739	2.23529410
13.75349140	2.11764717
13.75760365	1.86274505
13.76174068	1.84313726
13.76174068	1.98039210
13.76586914	1.94117641
13.76990795	1.94117641
13.77407837	2.00000000
13.77815723	1.54901958
13.78230286	1.68627453
13.78642368	1.78431368
13.79056072	2.00000000
13.79056072	2.01960778
13.79455757	2.15686274
13.79866219	1.94117641
13.80283165	2.00000000
13.80682945	2.17647052
13.81091690	2.01960778
13.81503773	1.88235295
13.81918335	1.76470590
13.81918335	1.80392158
13.82317257	2.21568632
13.82723618	2.39215684
13.83147907	2.35294127
13.83546066	1.72549021
13.83965492	1.64705884
13.84366035	1.88235295
13.84778976	2.31372547
13.84778976	2.39215684
13.85191059	2.31372547
13.85602283	2.41176462
13.86017609	2.41176462
13.86017609	2.33333325
13.86414909	2.47058821
13.86830235	2.37254906
13.87242317	2.31372547
13.87655163	2.27450991
13.87655163	2.07843137
13.88055801	2.13725495
13.88459587	2.33333325
13.88873291	2.50980401
13.88873291	2.31372547
13.89283752	2.37254906
13.89684296	2.25490189
13.90097237	1.90196073
13.90513325	2.05882359
13.90513325	2.70588231
13.90927887	3.03921580
13.91330147	3.58823538
13.91755295	4.29411745
13.91755295	4.80392170
13.92148495	4.98039198
13.92567921	4.98039198
13.92967701	4.98039198
13.93380547	4.92156839
13.93380547	4.07843161
13.93791008	3.15686274
13.94198132	2.52941179
13.94610214	2.01960778
13.94610214	1.74509799
13.95009136	1.31372547
13.95421219	1.39215684
13.95836544	1.29411769
13.96247768	1.05882359
13.96247768	1.17647064
13.96649170	1.52941179
13.97060394	1.49019611
13.97481441	1.39215684
13.97481441	1.56862748
13.97894382	1.72549021
13.98304749	1.72549021
13.98704529	1.80392158
13.99115753	2.01960778
13.99529457	2.01960778
13.99940681	1.78431368
14.00348663	2.07843137
14.00348663	2.25490189
14.00759125	2.33333325
14.01166248	2.29411769
14.01578331	2.45098042
14.01980495	2.33333325
14.02391720	2.52941179
14.02804661	2.88235283
14.03215885	2.50980401
14.03215885	2.50980401
14.03622150	2.66666675
14.04021931	2.64705873
14.04447174	2.49019599
14.04447174	2.56862736
14.04854298	2.76470590
14.05266285	3.01960778
14.05666924	2.94117641
14.06077385	2.70588231
14.06077385	2.96078420
14.06490231	3.19607854
14.06898212	3.29411769
14.07311058	3.43137264
14.07311058	3.45098042
14.07709980	3.23529410
14.08120441	3.19607854
14.08536530	3.56862736
14.08951950	3.92156863
14.08951950	4.00000000
14.09349251	3.98039222
14.09763718	3.90196085
14.10178280	3.72549009
14.10178280	3.84313726
14.10591984	3.84313726
14.10991764	3.84313726
14.11401272	3.84313726
14.11816692	3.68627453
14.11816692	3.49019599
14.12227058	3.43137264
14.12642384	3.52941179
14.13054466	3.47058821
14.13054466	3.21568632
14.13456726	3.03921580
14.13866329	2.78431368
14.14278316	2.52941179
14.14692020	2.72549009
14.14692020	2.92156863
14.15091038	2.96078420
14.15503883	2.82352948
14.15920067	2.58823538
14.15920067	2.35294127
14.16316509	2.35294127
14.16730213	2.52941179
14.17146397	2.66666675
14.17554283	2.60784316
14.17965603	2.60784316
14.18371868	2.82352948
14.18778229	2.90196085
14.18778229	3.09803915
14.19196796	3.11764717
14.19607258	2.86274505
14.20020962	2.96078420
14.20416641	2.70588231
14.20828629	2.88235283
14.21244812	3.03921580
14.21646214	2.90196085
14.21646214	2.50980401
14.22048473	2.31372547
14.22461319	2.47058821
14.22874260	2.43137264
14.23287868	2.33333325
14.23689365	2.23529410
14.24106312	2.03921580
14.24515915	2.19607854
14.24515915	2.27450991
14.24929619	2.01960778
14.25342464	1.96078432
14.25751209	1.82352936
14.25751209	1.70588231
14.26146889	1.88235295
14.26561451	2.07843137
14.26971817	2.09803915
14.27378178	2.01960778
14.27378178	1.78431368
14.27784538	1.70588231
14.28199863	1.78431368
14.28617668	1.94117641
14.28617668	1.98039210
14.29015732	1.84313726
14.29426956	1.74509799
14.29841518	1.74509799
14.30255222	1.74509799
14.30255222	2.05882359
14.30651665	2.19607854
14.31064606	2.15686274
14.31479073	1.96078432
14.31479073	1.84313726
14.31896019	1.84313726
14.32309723	2.03921580
14.32703018	2.31372547
14.33115864	2.33333325
14.33115864	2.25490189
14.33522987	2.05882359
14.33936691	1.86274505
14.34346294	1.92156863
14.34346294	2.23529410
14.34747696	2.58823538
14.35161400	2.56862736
14.35578346	2.50980401
14.35992050	2.47058821
14.35992050	2.27450991
14.36390972	2.21568632
14.36803055	2.50980401
14.37214279	2.49019599
14.37214279	2.33333325
14.37629604	2.11764717
14.38027000	2.15686274
14.38454533	2.74509811
14.38855171	4.17647076
14.39267254	4.74509811
14.39670277	4.98039198
14.40081501	4.98039198
14.40081501	4.98039198
14.40490246	4.98039198
14.40902328	4.68627453
14.41317654	3.72549009
14.41714954	2.07843137
14.42131138	1.56862748
14.42533398	1.41176474
14.42951965	1.52941179
14.42951965	1.39215684
14.43346882	1.52941179
14.43764591	1.56862748
14.44182396	1.54901958
14.44182396	1.56862748
14.44592857	1.56862748
14.44991779	1.58823526
14.45401382	1.47058821
14.45815086	1.54901958
14.45815086	1.49019611
14.46227932	1.68627453
14.46641636	1.94117641
14.47056198	2.00000000
14.47056198	1.96078432
14.47448540	2.00000000
14.47860622	1.72549021
14.48271847	1.80392158
14.48683929	2.03921580
14.48683929	2.19607854
14.49087811	2.09803915
14.49497414	1.90196073
14.49910259	1.78431368
14.49910259	1.90196073
14.50323963	2.05882359
14.50728607	2.25490189
14.51140690	2.29411769
14.51552773	2.27450991
14.51552773	2.07843137
14.51959133	2.07843137
14.52365398	2.31372547
14.52778244	2.52941179
14.52778244	2.66666675
14.53190327	2.68627453
14.53604889	2.72549009
14.54016876	2.50980401
14.54415035	2.41176462
14.54415035	2.74509811
14.54829597	3.03921580
14.55244923	3.27450991
14.55658627	3.41176462
14.55658627	3.41176462
14.56053448	3.62745094
14.56465530	3.84313726
14.56880856	3.92156863
14.57292080	3.60784316
14.57686138	3.56862736
14.58095741	3.64705873
14.58510208	3.76470590
14.58510208	3.76470590
14.58926392	3.60784316
14.59342575	3.50980401
14.59754562	3.33333325
14.60154343	2.86274505
14.60564804	2.78431368
14.60979271	2.60784316
14.61392212	2.41176462
14.61392212	2.21568632
14.61789513	2.01960778
14.62202358	2.05882359
14.62614441	2.05882359
14.63012600	1.82352936
14.63421345	1.66666663
14.63835049	1.52941179
14.64245415	1.62745094
14.64245415	1.90196073
14.64659977	2.25490189
14.65059757	2.17647052
14.65475845	2.07843137
14.65475845	1.86274505
14.65885448	1.64705884
14.66304874	1.72549021
14.66703033	1.96078432
14.67108536	2.13725495
14.67108536	2.21568632
14.67524719	2.31372547
14.67940044	2.23529410
14.68354607	2.17647052
14.68354607	2.17647052
14.68745327	2.11764717
14.69161510	1.94117641
14.69571877	1.96078432
14.69983959	1.68627453
14.69983959	1.66666663
14.70383739	1.84313726
14.70799065	1.96078432
14.71209431	1.84313726
14.71209431	1.66666663
14.71620750	1.49019611
14.72022915	1.41176474
14.72456264	1.62745094
14.72854424	1.78431368
14.72854424	1.70588231
14.73266506	1.60784316
14.73673630	1.52941179
14.74078274	1.41176474
14.74078274	1.47058821
14.74489594	1.58823526
14.74904919	1.64705884
14.75311184	1.56862748
14.75709343	1.54901958
14.75709343	1.25490201
14.76122189	1.37254906
14.76532650	1.52941179
14.76948833	1.74509799
14.76948833	1.56862748
14.77350998	1.68627453
14.77757359	1.52941179
14.78179264	1.54901958
14.78589630	1.84313726
14.78991890	1.82352936
14.79402256	1.86274505
14.79815197	1.74509799
14.79815197	1.72549021
14.80228901	1.82352936
14.80641747	2.00000000
14.81053829	1.94117641
14.81456852	1.80392158
14.81870556	1.70588231
14.82280159	1.86274505
14.82689762	1.96078432
14.82689762	2.11764717
14.83092785	2.15686274
14.83502388	2.15686274
14.83917713	1.92156863
14.83917713	1.92156863
14.84327316	1.76470590
14.84722137	1.94117641
14.85131741	1.88235295
14.85553646	1.98039210
14.85553646	2.31372547
14.85965729	2.82352948
14.86365509	3.80392146
14.86777592	4.62745094
14.86777592	4.98039198
14.87188816	4.98039198
14.87598419	4.98039198
14.88008785	4.98039198
14.88407803	4.58823538
14.88407803	3.72549009
14.88821411	3.07843137
14.89235115	2.47058821
14.89645576	2.03921580
14.89645576	1.52941179
14.90050220	1.33333337
14.90459824	1.39215684
14.90879250	1.35294116
14.91291332	1.29411769
14.91291332	1.35294116
14.91691113	1.23529410
14.92094994	1.25490201
14.92516041	1.41176474
14.92516041	1.45098042
14.92928123	1.29411769
14.93340969	1.21568632
14.93753052	1.35294116
14.94154453	1.17647064
14.94154453	1.31372547
14.94567299	1.54901958
14.94977760	1.45098042
14.95391464	1.41176474
14.95391464	1.50980389
14.95792007	1.43137252
14.96201611	1.52941179
14.96609592	1.64705884
14.97020817	1.72549021
14.97423077	1.62745094
14.97835922	1.52941179
14.98252106	1.52941179
14.98252106	1.74509799
14.98666573	1.78431368
14.99065590	1.68627453
14.99475956	1.64705884
14.99889660	1.78431368
15.00297642	2.15686274
15.00699806	2.45098042
15.01107025	2.39215684
15.01107025	2.25490189
15.01521492	2.43137264
15.01934433	2.45098042
15.02349758	2.68627453
15.02744579	3.13725495
15.03164005	3.17647052
15.03578568	3.29411769
15.03991413	3.25490189
15.03991413	3.25490189
15.04390335	3.56862736
15.04799175	3.84313726
15.05214500	3.88235283
15.05214500	3.76470590
15.05627346	3.68627453
15.06027126	3.62745094
15.06457233	3.62745094
15.06857777	3.76470590
15.06857777	3.70588231
15.07265759	3.47058821
15.07676983	3.29411769
15.08078384	2.96078420
15.08078384	2.84313726
15.08482265	2.78431368
15.08897591	2.60784316
15.09308052	2.60784316
15.09720039	2.45098042
15.09720039	2.07843137
15.10123158	2.00000000
15.10542583	2.17647052
15.10952187	2.21568632
15.10952187	2.00000000
15.11353588	1.82352936
15.11763954	1.68627453
15.12175179	1.78431368
15.12585640	2.00000000
15.12585640	2.23529410
15.12996864	1.98039210
15.13395023	1.90196073
15.13809490	1.74509799
15.13809490	1.82352936
15.14222431	1.96078432
15.14635277	2.39215684
15.15048981	2.56862736
15.15444660	2.54901958
15.15865707	2.19607854
15.16278553	2.25490189
15.16690636	2.33333325
15.16690636	2.39215684
15.17081356	2.19607854
15.17502499	2.17647052
15.17916965	2.01960778
15.18326569	1.94117641
15.18732071	1.90196073
15.19143295	1.70588231
15.19552898	1.70588231
15.19552898	1.50980389
15.19964123	1.52941179
15.20365524	1.66666663
15.20771027	1.78431368
15.21184731	1.47058821
15.21596050	1.33333337
15.22008038	1.27450979
15.22417641	1.41176474
15.22417641	1.43137252
15.22828865	1.45098042
15.23241806	1.27450979
15.23653030	1.45098042
15.23653030	1.37254906
15.24053574	1.43137252
15.24463177	1.82352936
15.24873638	1.98039210
15.25285721	1.78431368
15.25285721	1.45098042
15.25683022	1.39215684
15.26097488	1.45098042
15.26507950	1.66666663
15.26507950	1.86274505
15.26920033	1.76470590
15.27334499	1.62745094
15.27749825	1.64705884
15.28150463	1.66666663
15.28150463	1.84313726
15.28566551	2.00000000
15.28979492	2.09803915
15.29397202	1.98039210
15.29397202	1.92156863
15.29793739	1.70588231
15.30207443	1.74509799
15.30615425	1.76470590
15.31028271	1.90196073
15.31028271	1.92156863
15.31428051	1.84313726
15.31836796	1.62745094
15.32252121	1.56862748
15.32252121	1.80392158
15.32665825	1.90196073
15.33067226	1.56862748
15.33476830	1.84313726
15.33893013	2.23529410
15.33893013	2.72549009
15.34301758	3.68627453
15.34701538	4.74509811
15.35116100	4.98039198
15.35116100	4.98039198
15.35526466	4.98039198
15.35941792	4.98039198
15.36358833	4.98039198
15.36757755	3.29411769
15.37167358	2.29411769
15.37581062	1.68627453
15.37991428	1.31372547
15.37991428	1.03921568
15.38390446	1.21568632
15.38803291	1.37254906
15.39218616	1.19607842
15.39626598	0.86274511
15.40029621	0.78431374
15.40450668	1.09803927
15.40852928	1.29411769
15.40852928	1.31372547
15.41267490	1.33333337
15.41668892	1.25490201
15.42071915	1.09803927
15.42491341	1.49019611
15.42903423	1.54901958
15.43315411	1.49019611
15.43726730	1.47058821
15.43726730	1.49019611
15.44122410	1.62745094
15.44533634	1.90196073
15.44944000	2.03921580
15.44944000	1.98039210
15.45343781	1.90196073
15.45759964	1.70588231
15.46173668	1.52941179
15.46589756	1.90196073
15.46589756	2.00000000
15.47002697	1.88235295
15.47402477	1.90196073
15.47813702	1.86274505
15.47813702	1.62745094
15.48228168	1.70588231
15.48647594	2.01960778
15.49053097	2.19607854
15.49452114	2.35294127
15.49452114	2.27450991
15.49858379	2.01960778
15.50270462	2.27450991
15.50683308	2.74509811
15.50683308	2.88235283
15.51080608	2.94117641
15.51495171	2.90196085
15.51907253	2.70588231
15.52325058	2.82352948
15.52325058	3.15686274
15.52726460	3.43137264
15.53153229	3.35294127
15.53552151	3.23529410
15.53552151	3.00000000
15.53963375	2.84313726
15.54365635	3.07843137
15.54776096	3.13725495
15.55187321	2.96078420
15.55187321	2.68627453
15.55600166	2.70588231
15.56018829	2.50980401
15.56420231	2.47058821
15.56420231	2.37254906
15.56829834	2.07843137
15.57239437	1.90196073
15.57653141	1.90196073
15.58052063	1.80392158
15.58464146	1.72549021
15.58872032	1.84313726
15.59282494	1.92156863
15.59282494	1.74509799
15.59681416	1.56862748
15.60097599	1.50980389
15.60510445	1.78431368
15.60928249	1.70588231
15.61340332	1.62745094
15.61752415	1.76470590
15.62143993	1.54901958
15.62143993	1.68627453
15.62561703	1.84313726
15.62969685	2.15686274
15.63383389	2.27450991
15.63383389	2.25490189
15.63786411	2.13725495
15.64194393	2.09803915
15.64608955	2.13725495
15.65022659	2.29411769
15.65022659	2.13725495
15.65418339	2.07843137
15.65854073	1.94117641
15.66250610	1.78431368
15.66250610	1.66666663
15.66665077	1.72549021
15.67065716	1.58823526
15.67478561	1.60784316
15.67889786	1.52941179
15.67889786	1.21568632
15.68302727	1.17647064
15.68706512	1.33333337
15.69119453	1.54901958
15.69119453	1.60784316
15.69529057	1.62745094
15.69939423	1.39215684
15.70352364	1.50980389
15.70752907	1.74509799
15.70752907	1.62745094
15.71159267	1.45098042
15.71568871	1.54901958
15.71982574	1.52941179
15.71982574	1.54901958
15.72387218	1.64705884
15.72800922	1.64705884
15.73213768	1.60784316
15.73628330	1.56862748
15.73628330	1.43137252
15.74028111	1.39215684
15.74452400	1.60784316
15.74844837	1.90196073
15.74844837	1.86274505
15.75258541	1.86274505
15.75669765	1.74509799
15.76072025	1.54901958
15.76483250	1.92156863
15.76895237	1.86274505
15.77310658	1.72549021
15.77722645	1.70588231
15.77722645	1.54901958
15.78124905	1.76470590
15.78538609	2.07843137
15.78952312	2.09803915
15.79366016	2.01960778
15.79763317	1.84313726
15.80177021	1.82352936
15.80587387	2.03921580
15.80587387	2.07843137
15.81003571	1.92156863
15.81395149	1.90196073
15.81807995	1.72549021
15.82221699	2.70588231
15.82628059	3.45098042
15.83045006	4.27450991
15.83443165	4.86274529
15.83443165	4.98039198
15.83864212	4.98039198
15.84276295	4.98039198
15.84690762	4.98039198
15.84690762	4.74509811
15.85087299	3.64705873
15.85501003	2.68627453
15.85915470	1.88235295
15.86327553	1.49019611
15.86327553	1.41176474
15.86722374	1.54901958
15.87145138	1.47058821
15.87546539	1.50980389
15.87546539	1.50980389
15.87956905	1.47058821
15.88369846	1.58823526
15.88773727	1.72549021
15.89192295	1.68627453
15.89192295	1.66666663
15.89601040	1.60784316
15.90015602	1.64705884
15.90417862	1.82352936
15.90417862	1.82352936
15.90827465	1.78431368
15.91240311	1.78431368
15.91652393	1.96078432
15.92064381	1.70588231
15.92064381	1.58823526
15.92467499	1.94117641
15.92883587	2.09803915
15.93295670	2.05882359
15.93295670	2.09803915
15.93692970	2.01960778
15.94104195	2.03921580
15.94517136	2.07843137
15.94925880	2.23529410
15.94925880	2.43137264
15.95339584	2.54901958
15.95754051	2.52941179
15.96151352	2.41176462
15.96151352	2.41176462
15.96565914	2.54901958
15.96976376	2.52941179
15.97391701	2.78431368
15.97792244	2.54901958
15.98193645	2.58823538
15.98608971	2.90196085
15.99023533	3.09803915
15.99023533	3.01960778
15.99425697	3.27450991
15.99853325	3.15686274
16.00245667	3.19607854
16.00658607	3.56862736
16.01059151	3.45098042
16.01471329	3.41176462
16.01883316	3.33333325
16.01883316	3.27450991
16.02300262	3.35294127
16.02697563	3.60784316
16.03108788	3.56862736
16.03108788	3.52941179
16.03525925	3.54901958
16.03940392	3.19607854
16.04353142	3.05882359
16.04752159	3.09803915
16.04752159	3.13725495
16.05165100	2.92156863
16.05574608	2.96078420
16.05990791	2.70588231
16.05990791	2.56862736
16.06384850	2.60784316
16.06795311	2.70588231
16.07209015	2.56862736
16.07618523	2.68627453
16.07618523	2.45098042
16.08032990	2.33333325
16.08447647	2.56862736
16.08849907	2.86274505
16.08849907	2.78431368
16.09258652	2.66666675
16.09678841	2.80392146
16.10076904	2.45098042
16.10486603	2.49019599
16.10486603	2.60784316
16.10901833	2.80392146
16.11315536	2.86274505
16.11727715	2.84313726
16.11727715	2.74509811
16.12119293	2.76470590
16.12534523	2.84313726
16.12947464	2.90196085
16.13356209	2.88235283
16.13356209	2.78431368
16.13759232	2.70588231
16.14172173	2.47058821
16.14581680	2.56862736
16.14581680	2.62745094
16.14992905	2.37254906
16.15393639	2.25490189
16.15813828	2.13725495
16.16228294	2.29411769
16.16637993	2.35294127
16.17053223	2.33333325
16.17452240	2.25490189
16.17452240	2.19607854
16.17865944	1.96078432
16.18275452	1.98039210
16.18688393	2.17647052
16.19091415	2.37254906
16.19504356	2.37254906
16.19913864	2.33333325
16.20327568	2.33333325
16.20327568	2.43137264
16.20728302	2.52941179
16.21150970	2.45098042
16.21553230	2.47058821
16.21553230	2.45098042
16.21955299	2.37254906
16.22361755	2.56862736
16.22772217	2.60784316
16.23189163	2.64705873
16.23189163	2.49019599
16.23602867	2.37254906
16.24018097	2.15686274
16.24427795	2.29411769
16.24427795	2.50980401
16.24827576	2.72549009
16.25235367	2.70588231
16.25645065	2.64705873
16.26059532	2.60784316
16.26059532	2.72549009
16.26457787	2.88235283
16.26868057	3.09803915
16.27285004	3.05882359
16.27285004	3.17647052
16.27697182	3.05882359
16.28100967	2.96078420
16.28513908	2.98039222
16.28926849	2.96078420
16.28926849	3.03921580
16.29340553	3.15686274
16.29753304	2.90196085
16.30151558	2.56862736
16.30151558	2.68627453
16.30561829	3.17647052
16.30978012	3.62745094
16.31371307	4.17647076
16.31782532	4.98039198
16.31782532	4.98039198
16.32194519	4.98039198
16.32605743	4.98039198
16.33021927	4.98039198
16.33021927	4.96078444
16.33419991	4.09803915
16.33851051	3.27450991
16.34250832	2.62745094
16.34664536	2.41176462
16.35064125	2.27450991
16.35472107	2.29411769
16.35891533	2.21568632
16.35891533	2.03921580
16.36302757	2.31372547
16.36715698	2.49019599
16.37106514	2.49019599
16.37521744	2.60784316
16.37932968	2.47058821
16.38344383	2.66666675
16.38757133	2.90196085
16.38757133	3.07843137
16.39159393	3.09803915
16.39571381	3.11764717
16.39981842	3.00000000
16.40387344	3.31372547
16.40801048	3.45098042
16.41213226	3.39215684
16.41626740	3.31372547
16.41626740	3.27450991
16.42038918	3.13725495
16.42453384	3.31372547
16.42849922	3.25490189
16.42849922	3.21568632
16.43265152	3.37254906
16.43671608	3.43137264
16.44072151	3.35294127
16.44480896	3.62745094
16.44480896	3.54901958
16.44893837	3.76470590
16.45307541	4.05882359
16.45722008	4.25490189
16.45722008	4.21568632
16.46118546	3.94117641
16.46533775	3.98039222
16.46950722	4.17647076
16.47366142	4.29411745
16.47366142	4.52941179
16.47763443	4.70588255
16.48177147	4.64705896
16.48588371	4.66666651
16.48588371	4.84313726
16.49002838	4.98039198
16.49402618	4.98039198
16.49809074	4.98039198
16.50222778	4.98039198
16.50222778	4.98039198
16.50630569	4.98039198
16.51045227	4.98039198
16.51445007	4.98039198
16.51445007	4.98039198
16.51856995	4.98039198
16.52270699	4.98039198
16.52687645	4.98039198
16.53102112	4.98039198
16.53102112	4.98039198
16.53499413	4.64705896
16.53913116	3.88235283
16.54325294	3.56862736
16.54325294	3.25490189
16.54722595	3.21568632
16.55150223	3.23529410
16.55549049	3.19607854
16.55962753	2.92156863
16.56368256	3.09803915
16.56771469	3.09803915
16.57188416	2.96078420
16.57188416	2.84313726
16.57602119	3.03921580
16.58013344	2.96078420
16.58425331	3.19607854
16.58827591	3.45098042
16.59238052	3.27450991
16.59651756	3.27450991
16.60055542	3.09803915
16.60055542	3.05882359
16.60459328	3.21568632
16.60877991	3.11764717
16.61287689	3.00000000
16.61702156	2.78431368
16.62092972	2.66666675
16.62511444	2.76470590
16.62922668	2.76470590
16.62922668	2.60784316
16.63329887	2.60784316
16.63745308	2.54901958
16.64146614	2.35294127
16.64146614	2.45098042
16.64556313	2.76470590
16.64967537	2.80392146
16.65371323	2.54901958
16.65790749	2.41176462
16.65790749	2.31372547
16.66200447	2.41176462
16.66612434	2.45098042
16.67026901	2.62745094
16.67026901	2.49019599
16.67425919	2.60784316
16.67852783	2.37254906
16.68251610	2.49019599
16.68662071	2.64705873
16.68662071	2.84313726
16.69069290	2.74509811
16.69478798	2.62745094
16.69889259	2.52941179
16.69889259	2.43137264
16.70300484	2.41176462
16.70714951	2.50980401
16.71113205	2.52941179
16.71525955	2.62745094
16.71525955	2.70588231
16.71932220	2.58823538
16.72348404	2.68627453
16.72756386	2.96078420
16.72756386	3.13725495
16.73159409	3.01960778
16.73574829	2.96078420
16.73990059	2.70588231
16.74403000	2.58823538
16.74799538	2.72549009
16.75209999	2.60784316
16.75624466	2.74509811
16.75624466	2.80392146
16.76031685	2.64705873
16.76446152	2.94117641
16.76844215	2.88235283
16.77259636	2.58823538
16.77674866	2.52941179
16.78075409	2.72549009
16.78484344	3.31372547
16.78484344	4.05882359
16.78900337	4.86274529
16.79314041	4.98039198
16.79726219	4.98039198
16.80124283	4.98039198
16.80548668	4.98039198
16.80949211	4.96078444
16.81364632	4.11764717
16.81364632	3.19607854
16.81765175	2.37254906
16.82179642	1.84313726
16.82590103	1.58823526
16.82590103	1.64705884
16.82997322	1.64705884
16.83399391	1.56862748
16.83808327	1.54901958
16.84220314	1.47058821
16.84220314	1.60784316
16.84631538	1.70588231
16.85042763	1.64705884
16.85446739	1.58823526
16.85446739	1.62745094
16.85864449	1.35294116
16.86276436	1.70588231
16.86690140	2.09803915
16.87093163	2.21568632
16.87093163	2.09803915
16.87502098	1.94117641
16.87914848	1.74509799
16.88328552	1.90196073
16.88328552	2.17647052
16.88730812	2.47058821
16.89150238	2.58823538
16.89551735	2.58823538
16.89962959	2.41176462
16.89962959	2.43137264
16.90374947	2.74509811
16.90777969	2.90196085
16.91187668	2.84313726
16.91187668	2.68627453
16.91602898	2.66666675
16.92012596	2.76470590
16.92415619	3.01960778
16.92826080	3.03921580
16.92826080	3.07843137
16.93232346	3.11764717
16.93642807	3.15686274
16.94060516	3.05882359
16.94060516	3.07843137
16.94457054	3.23529410
16.94869041	3.39215684
16.95282745	3.54901958
16.95698166	3.49019599
16.96100426	3.45098042
16.96514130	3.50980401
16.96925354	3.74509811
16.96925354	3.74509811
16.97334862	3.94117641
16.97749329	3.96078420
16.98149109	3.74509811
16.98562050	3.82352948
16.98977470	3.74509811
16.99395180	3.64705873
16.99794960	3.49019599
16.99794960	3.25490189
17.00206184	3.23529410
17.00617409	3.19607854
17.01028633	3.05882359
17.01028633	3.00000000
17.01425934	3.07843137
17.01851082	2.90196085
17.02251816	2.70588231
17.02662086	2.66666675
17.02662086	2.56862736
17.03066063	2.29411769
17.03475571	2.13725495
17.03890038	2.25490189
17.03890038	2.13725495
17.04300499	2.27450991
17.04712677	2.45098042
17.05109024	2.49019599
17.05526924	2.35294127
17.05526924	2.17647052
17.05937386	2.31372547
17.06349373	2.49019599
17.06758881	2.82352948
17.06758881	2.86274505
17.07156181	2.47058821
17.07570839	2.41176462
17.07980347	2.31372547
17.08393288	2.09803915
17.08393288	2.23529410
17.08794594	2.41176462
17.09209251	2.21568632
17.09626961	1.88235295
17.09626961	1.64705884
17.10038948	1.41176474
17.10442162	1.66666663
17.10851669	1.86274505
17.11264610	1.88235295
17.11264610	1.76470590
17.11676598	1.54901958
17.12078857	1.37254906
17.12486076	1.29411769
17.12486076	1.47058821
17.12892342	1.35294116
17.13306046	1.35294116
17.13722229	1.35294116
17.14118576	1.23529410
17.14541435	1.33333337
17.14942741	1.56862748
17.15358925	1.62745094
17.15358925	1.66666663
17.15763664	1.60784316
17.16173172	1.58823526
17.16586876	1.50980389
17.16999054	1.76470590
17.17401123	1.90196073
17.17811584	1.84313726
17.18223763	1.70588231
17.18223763	1.68627453
17.18638229	1.80392158
17.19044495	1.68627453
17.19443512	1.52941179
17.19855499	1.43137252
17.20267487	1.66666663
17.20681190	1.80392158
17.21094894	1.90196073
17.21094894	1.74509799
17.21496391	1.64705884
17.21911621	1.54901958
17.22323036	1.52941179
17.22323036	1.66666663
17.22739029	1.76470590
17.23149490	1.78431368
17.23550034	1.92156863
17.23961258	1.94117641
17.23961258	1.52941179
17.24375916	1.39215684
17.24775696	1.62745094
17.25184441	1.70588231
17.25184441	2.07843137
17.25595665	2.60784316
17.26003647	3.23529410
17.26405907	3.96078420
17.26819611	4.54901981
17.26819611	4.98039198
17.27247238	4.98039198
17.27647018	4.98039198
17.28063011	4.98039198
17.28063011	4.11764717
17.28462029	3.17647052
17.28876495	2.45098042
17.29289436	1.74509799
17.29702377	1.41176474
17.29702377	1.07843137
17.30099678	0.90196079
17.30510902	1.05882359
17.30925369	1.29411769
17.30925369	1.13725495
17.31339836	0.96078432
17.31746292	0.94117647
17.32150078	0.96078432
17.32563019	1.01960790
17.32563019	1.21568632
17.32975769	1.47058821
17.33386993	1.60784316
17.33800697	1.58823526
17.33800697	1.39215684
17.34199715	1.31372547
17.34613419	1.39215684
17.35016441	1.56862748
17.35430908	2.01960778
17.35853577	1.82352936
17.36251068	1.82352936
17.36662292	2.03921580
17.36662292	2.13725495
17.37066841	1.94117641
17.37474060	1.86274505
17.37892723	1.88235295
17.38305473	1.86274505
17.38713455	2.15686274
17.39112473	2.07843137
17.39526939	2.01960778
17.39526939	2.05882359
17.39937401	2.00000000
17.40350342	2.25490189
17.40757370	2.43137264
17.40757370	2.41176462
17.41157913	2.41176462
17.41567612	2.50980401
17.41983795	2.39215684
17.42403221	2.64705873
17.42403221	2.90196085
17.42800522	3.17647052
17.43213272	3.33333325
17.43626213	3.35294127
17.43626213	3.21568632
17.44034958	3.09803915
17.44447136	3.27450991
17.44842720	3.41176462
17.45257187	3.41176462
17.45257187	3.27450991
17.45672607	3.13725495
17.46080589	2.80392146
17.46481895	2.94117641
17.46481895	3.15686274
17.46896553	3.17647052
17.47313499	2.90196085
17.47726250	2.66666675
17.48139191	2.37254906
17.48139191	2.35294127
17.48551178	2.41176462
17.48950195	2.33333325
17.49363899	2.09803915
17.49363899	2.00000000
17.49763680	1.84313726
17.50179100	1.68627453
17.50592804	1.72549021
17.51000595	1.74509799
17.51000595	1.68627453
17.51412010	1.60784316
17.51813316	1.47058821
17.52226257	1.31372547
17.52226257	1.60784316
17.52636528	1.80392158
17.53044510	1.92156863
17.53443527	1.74509799
17.53863716	1.52941179
17.54266739	1.78431368
17.54688644	1.96078432
17.55102348	1.92156863
17.55102348	1.78431368
17.55499649	1.84313726
17.55912590	1.66666663
17.56325531	1.66666663
17.56734276	1.86274505
17.57142258	1.60784316
17.57545280	1.43137252
17.57957268	1.29411769
17.57957268	1.09803927
17.58366966	1.03921568
17.58773994	1.17647064
17.59185219	1.21568632
17.59598923	1.19607842
17.60013580	1.05882359
17.60407639	1.07843137
17.60826111	1.13725495
17.60826111	1.25490201
17.61237335	1.23529410
17.61650276	1.15686274
17.62063217	1.13725495
17.62063217	1.35294116
17.62473488	1.39215684
17.62876701	1.41176474
17.63289452	1.29411769
17.63700676	1.19607842
17.63700676	1.17647064
17.64100456	1.27450979
17.64514160	1.43137252
17.64916420	1.37254906
17.64916420	1.35294116
17.65330887	1.60784316
17.65745544	1.45098042
17.66145134	1.15686274
17.66563034	1.09803927
17.66563034	1.19607842
17.66975975	1.39215684
17.67390442	1.49019611
17.67799187	1.50980389
17.67799187	1.29411769
17.68198204	1.41176474
17.68611908	1.54901958
17.69022179	1.62745094
17.69430161	1.58823526
17.69430161	1.74509799
17.69843864	1.68627453
17.70242119	1.64705884
17.70657349	1.78431368
17.70657349	1.88235295
17.71069527	1.74509799
17.71472549	1.82352936
17.71887779	1.68627453
17.72299957	1.45098042
17.72299957	1.72549021
17.72713661	1.66666663
17.73111725	1.35294116
17.73523712	1.47058821
17.73523712	1.86274505
17.73934937	2.37254906
17.74348640	3.21568632
17.74763298	4.05882359
17.75166321	4.98039198
17.75580025	4.98039198
17.75988007	4.98039198
17.76399994	4.43137264
17.76399994	3.78431368
17.76794052	3.15686274
17.77206039	2.47058821
17.77618980	1.90196073
17.78030968	0.98039216
17.78444672	1.13725495
17.78850174	1.21568632
17.79261398	1.13725495
17.79261398	1.15686274
17.79675865	1.17647064
17.80088806	1.03921568
17.80480385	1.15686274
17.80480385	1.19607842
17.80899811	1.19607842
17.81307793	1.11764705
17.81721497	1.21568632
17.82129478	1.11764705
17.82129478	1.23529410
17.82543945	1.31372547
17.82943726	1.50980389
17.83354950	1.33333337
17.83354950	1.47058821
17.83754730	1.39215684
17.84171677	1.19607842
17.84586334	1.62745094
17.84999084	1.96078432
17.84999084	2.00000000
17.85405350	1.96078432
17.85813332	1.78431368
17.86223030	1.80392158
17.86223030	2.21568632
17.86638260	2.31372547
17.87054443	2.35294127
17.87450218	2.31372547
17.87859726	2.13725495
17.87859726	1.90196073
17.88266945	2.01960778
17.88681412	2.35294127
17.89095879	2.56862736
17.89095879	2.33333325
17.89491653	2.29411769
17.89906120	2.25490189
17.90319824	2.37254906
17.90740967	2.72549009
17.90740967	2.94117641
17.91149712	3.00000000
17.91550255	2.94117641
17.91962242	2.86274505
17.91962242	2.64705873
17.92376900	2.94117641
17.92774963	3.35294127
17.93185425	3.39215684
17.93598175	3.21568632
17.94007874	3.05882359
17.94416618	3.13725495
17.94826317	3.31372547
17.94826317	3.27450991
17.95248985	3.03921580
17.95652008	2.74509811
17.96061516	2.56862736
17.96461296	2.60784316
17.96876717	2.64705873
17.97286224	2.47058821
17.97697449	2.13725495
17.97697449	1.92156863
17.98105431	1.80392158
17.98505211	1.70588231
17.98925591	1.92156863
17.99336815	1.84313726
17.99751282	1.68627453
18.00146866	1.52941179
18.00555801	1.76470590
18.00555801	1.92156863
18.00970268	1.86274505
18.01379776	1.74509799
18.01794434	1.64705884
18.01794434	1.43137252
18.02195740	1.62745094
18.02605438	1.78431368
18.03019142	1.90196073
18.03438568	2.00000000
18.03438568	2.05882359
18.03848839	2.03921580
18.04251862	2.07843137
18.04663277	2.33333325
18.04663277	2.47058821
18.05076027	2.29411769
18.05472565	2.17647052
18.05887032	2.17647052
18.06295776	1.92156863
18.06295776	1.82352936
18.06708717	1.82352936
18.07105255	1.76470590
18.07519722	1.74509799
18.07519722	1.66666663
18.07933426	1.50980389
18.08342171	1.41176474
18.08756828	1.47058821
18.09159851	1.52941179
18.09159851	1.47058821
18.09574318	1.39215684
18.09988022	1.05882359
18.10395050	1.07843137
18.10395050	1.25490201
18.10802269	1.39215684
18.11210251	1.31372547
18.11625481	1.27450979
18.12037659	1.33333337
18.12037659	1.19607842
18.12451363	1.19607842
18.12854385	1.33333337
18.13264847	1.27450979
18.13264847	1.27450979
18.13676834	1.23529410
18.14086533	1.23529410
18.14487839	1.39215684
18.14899063	1.43137252
18.15311241	1.37254906
18.15719986	1.39215684
18.16129494	1.13725495
18.16129494	1.39215684
18.16540718	1.52941179
18.16944695	1.50980389
18.17361641	1.47058821
18.17775345	1.37254906
18.18172646	1.31372547
18.18586349	1.52941179
18.18995094	1.92156863
18.18995094	1.78431368
18.19407082	1.66666663
18.19803619	1.74509799
18.20218086	1.80392158
18.20218086	1.80392158
18.20632744	1.96078432
18.21043968	2.17647052
18.21442032	2.05882359
18.21860695	1.84313726
18.21860695	1.43137252
18.22274399	1.39215684
18.22688103	1.47058821
18.23098564	1.74509799
18.23098564	2.19607854
18.23497391	2.90196085
18.23905373	3.56862736
18.24325562	4.33333349
18.24736023	4.98039198
18.24736023	4.98039198
18.25159645	4.98039198
18.25550270	4.98039198
18.25964928	4.80392170
18.25964928	3.70588231
18.26373672	2.92156863
18.26773453	2.21568632
18.27189636	1.50980389
18.27598381	1.15686274
18.27598381	0.88235295
18.28006363	0.88235295
18.28421593	1.03921568
18.28818893	1.23529410
18.28818893	1.23529410
18.29245758	1.11764705
18.29650497	1.01960790
18.30062485	1.03921568
18.30472183	1.27450979
18.30472183	1.45098042
18.30872726	1.50980389
18.31287956	1.43137252
18.31692696	1.45098042
18.31692696	1.21568632
18.32104683	1.37254906
18.32506943	1.54901958
18.32916641	1.68627453
18.33328629	1.74509799
18.33743095	1.68627453
18.34147072	1.50980389
18.34560776	1.56862748
18.34560776	1.68627453
18.34973526	1.74509799
18.35391426	1.82352936
18.35801888	1.98039210
18.36198235	1.84313726
18.36610413	1.98039210
18.37024879	2.05882359
18.37437820	2.13725495
18.37437820	2.19607854
18.37853813	2.13725495
18.38254547	2.17647052
18.38661575	2.37254906
18.39073753	2.52941179
18.39475060	2.50980401
18.39879036	2.58823538
18.40293503	2.45098042
18.40293503	2.66666675
18.40707207	3.00000000
18.41104507	3.13725495
18.41518974	3.19607854
18.41518974	3.33333325
18.41935921	3.25490189
18.42351341	3.43137264
18.42762566	3.60784316
18.43163109	3.72549009
18.43163109	3.58823538
18.43574333	3.35294127
18.43984795	3.17647052
18.44396019	3.25490189
18.44396019	3.33333325
18.44791794	3.45098042
18.45207787	3.17647052
18.45619011	2.90196085
18.46025467	2.60784316
18.46025467	2.41176462
18.46443939	2.43137264
18.46841431	2.74509811
18.47260857	2.64705873
18.47260857	2.37254906
18.47668648	2.07843137
18.48080826	1.72549021
18.48485565	2.00000000
18.48899269	2.03921580
18.48899269	2.01960778
18.49310493	1.94117641
18.49724960	1.88235295
18.50135422	1.66666663
18.50135422	1.68627453
18.50543404	1.90196073
18.50940704	2.07843137
18.51354408	2.05882359
18.51768875	2.19607854
18.51768875	2.15686274
18.52171898	2.29411769
18.52583122	2.52941179
18.52998543	2.62745094
18.52998543	2.64705873
18.53412056	2.31372547
18.53807831	2.23529410
18.54222298	2.23529410
18.54638481	2.68627453
18.55048180	2.84313726
18.55440521	2.92156863
18.55861473	2.78431368
18.55861473	2.56862736
18.56275177	2.76470590
18.56683159	2.84313726
18.57090378	2.90196085
18.57492638	2.62745094
18.57904625	2.31372547
18.58320045	2.19607854
18.58731270	2.33333325
18.58731270	2.47058821
18.59149742	2.13725495
18.59549522	1.96078432
18.59961700	1.74509799
18.60376930	1.86274505
18.60775948	1.92156863
18.61182213	1.92156863
18.61592674	1.82352936
18.61592674	1.88235295
18.62004662	2.00000000
18.62420082	2.05882359
18.62833786	2.13725495
18.62833786	2.23529410
18.63240051	2.23529410
18.63643074	2.19607854
18.64054298	2.03921580
18.64464760	2.11764717
18.64464760	2.31372547
18.64864540	2.47058821
18.65284729	2.33333325
18.65700912	2.35294127
18.65700912	2.33333325
18.66112137	2.19607854
