905.68280029	2.35294127
905.68280029	2.41176462
905.68688965	2.31372547
905.69110107	2.33333325
905.69519043	2.39215684
905.69927979	2.45098042
905.69927979	2.52941179
905.70330811	2.70588231
905.70745850	2.84313726
905.71154785	2.86274505
905.71154785	2.86274505
905.71557617	2.88235283
905.71972656	2.98039222
905.72387695	2.98039222
905.72796631	3.01960778
905.72796631	3.00000000
905.73205566	3.03921580
905.73602295	3.05882359
905.74029541	3.13725495
905.74029541	3.21568632
905.74426270	3.29411769
905.74841309	3.11764717
905.75244141	3.03921580
905.75659180	3.05882359
905.75659180	3.11764717
905.76068115	3.27450991
905.76483154	3.27450991
905.76892090	3.33333325
905.76892090	3.27450991
905.77294922	3.23529410
905.77703857	3.15686274
905.78118896	3.21568632
905.78533936	3.19607854
905.78533936	3.19607854
905.78930664	3.11764717
905.79339600	3.11764717
905.79748535	3.19607854
905.79748535	3.15686274
905.80169678	3.21568632
905.80566406	3.17647052
905.80981445	3.07843137
905.81396484	2.98039222
905.81396484	3.00000000
905.81805420	3.00000000
905.82208252	3.09803915
905.82629395	3.09803915
905.82629395	3.07843137
905.83032227	3.03921580
905.83447266	2.96078420
905.83856201	2.94117641
905.84265137	2.96078420
905.84674072	2.96078420
905.85083008	2.90196085
905.85498047	2.96078420
905.85498047	2.96078420
905.85894775	2.96078420
905.86309814	3.01960778
905.86730957	2.94117641
905.87127686	2.84313726
905.87548828	2.80392146
905.87945557	2.82352948
905.88354492	2.90196085
905.88354492	2.94117641
905.88763428	2.96078420
905.89190674	2.86274505
905.89599609	2.76470590
905.89996338	2.80392146
905.90411377	2.84313726
905.90826416	2.78431368
905.91235352	2.72549009
905.91235352	2.76470590
905.91638184	2.86274505
905.92047119	2.86274505
905.92462158	2.84313726
905.92871094	2.74509811
905.93267822	2.70588231
905.93682861	2.64705873
905.94097900	2.72549009
905.94097900	2.76470590
905.94506836	2.72549009
905.94903564	2.66666675
905.95330811	2.66666675
905.95733643	2.76470590
905.96148682	2.68627453
905.96551514	2.68627453
905.96960449	2.62745094
905.96960449	2.54901958
905.97375488	2.56862736
905.97784424	2.54901958
905.98193359	2.54901958
905.98193359	2.66666675
905.98590088	2.68627453
905.99011230	2.56862736
905.99420166	2.52941179
905.99835205	2.47058821
905.99835205	2.49019599
906.00231934	2.58823538
906.00653076	2.60784316
906.01062012	2.60784316
906.01062012	2.52941179
906.01470947	2.52941179
906.01885986	2.54901958
906.02288818	2.60784316
906.02697754	2.60784316
906.02697754	2.60784316
906.03106689	2.50980401
906.03521729	2.52941179
906.03930664	2.52941179
906.03930664	2.56862736
906.04333496	2.60784316
906.04742432	2.56862736
906.05157471	2.49019599
906.05572510	2.52941179
906.05572510	2.52941179
906.05975342	2.54901958
906.06384277	2.60784316
906.06793213	2.58823538
906.06793213	2.49019599
906.07202148	2.45098042
906.07598877	2.47058821
906.08032227	2.52941179
906.08428955	2.60784316
906.08428955	2.58823538
906.08843994	2.60784316
906.09240723	2.56862736
906.09655762	2.58823538
906.09655762	2.52941179
906.10070801	2.50980401
906.10485840	2.54901958
906.10888672	2.56862736
906.11297607	2.56862736
906.11297607	2.52941179
906.11706543	2.52941179
906.12115479	2.54901958
906.12536621	2.60784316
906.12536621	2.60784316
906.12927246	2.60784316
906.13342285	2.52941179
906.13757324	2.50980401
906.14172363	2.54901958
906.14172363	2.64705873
906.14581299	2.62745094
906.14978027	2.58823538
906.15393066	2.47058821
906.15393066	2.52941179
906.15802002	2.54901958
906.16217041	2.54901958
906.16625977	2.60784316
906.17028809	2.54901958
906.17028809	2.49019599
906.17443848	2.41176462
906.17852783	2.49019599
906.18267822	2.60784316
906.18267822	2.58823538
906.18664551	2.45098042
906.19079590	2.50980401
906.19488525	2.56862736
906.19903564	2.56862736
906.19903564	2.54901958
906.20306396	2.56862736
906.20721436	2.60784316
906.21130371	2.58823538
906.21130371	2.56862736
906.21545410	2.56862736
906.21954346	2.52941179
906.22357178	2.52941179
906.22772217	2.62745094
906.23181152	2.56862736
906.23577881	2.47058821
906.23999023	2.49019599
906.23999023	2.58823538
906.24407959	2.66666675
906.24816895	2.62745094
906.25231934	2.56862736
906.25634766	2.52941179
906.26043701	2.66666675
906.26458740	2.70588231
906.26867676	2.70588231
906.26867676	2.60784316
906.27270508	2.54901958
906.27679443	2.54901958
906.28094482	2.66666675
906.28503418	2.66666675
906.28906250	2.58823538
906.29333496	2.50980401
906.29730225	2.56862736
906.29730225	2.56862736
906.30145264	2.58823538
906.30554199	2.62745094
906.30957031	2.56862736
906.31372070	2.52941179
906.31781006	2.52941179
906.32189941	2.54901958
906.32604980	2.54901958
906.32604980	2.54901958
906.33001709	2.54901958
906.33416748	2.52941179
906.33831787	2.50980401
906.33831787	2.54901958
906.34222412	2.58823538
906.34637451	2.58823538
906.35046387	2.54901958
906.35461426	2.50980401
906.35461426	2.50980401
906.35876465	2.50980401
906.36273193	2.52941179
906.36682129	2.56862736
906.36682129	2.52941179
906.37103271	2.47058821
906.37512207	2.47058821
906.37933350	2.43137264
906.38330078	2.56862736
906.38330078	2.56862736
906.38739014	2.56862736
906.39154053	2.50980401
906.39562988	2.37254906
906.39562988	2.47058821
906.39965820	2.52941179
906.40380859	2.60784316
906.40795898	2.56862736
906.41210938	2.47058821
906.41210938	2.41176462
906.41607666	2.49019599
906.42028809	2.49019599
906.42431641	2.54901958
906.42431641	2.52941179
906.42846680	2.41176462
906.43243408	2.41176462
906.43652344	2.45098042
906.44073486	2.49019599
906.44073486	2.50980401
906.44482422	2.47058821
906.44891357	2.43137264
906.45294189	2.45098042
906.45294189	2.47058821
906.45715332	2.43137264
906.46118164	2.41176462
906.46533203	2.47058821
906.46948242	2.50980401
906.46948242	2.49019599
906.47351074	2.52941179
906.47753906	2.43137264
906.48175049	2.39215684
906.48175049	2.47058821
906.48583984	2.54901958
906.48986816	2.50980401
906.49395752	2.43137264
906.49804688	2.41176462
906.49804688	2.47058821
906.50219727	2.60784316
906.50634766	2.60784316
906.51031494	2.56862736
906.51031494	2.43137264
906.51446533	2.45098042
906.51861572	2.49019599
906.52258301	2.56862736
906.52673340	2.58823538
906.52673340	2.52941179
906.53082275	2.49019599
906.53497314	2.47058821
906.53906250	2.47058821
906.53906250	2.58823538
906.54309082	2.60784316
906.54718018	2.52941179
906.55126953	2.45098042
906.55548096	2.49019599
906.55548096	2.54901958
906.55944824	2.54901958
906.56353760	2.52941179
906.56768799	2.54901958
906.56768799	2.50980401
906.57189941	2.41176462
906.57580566	2.49019599
906.57995605	2.50980401
906.58410645	2.52941179
906.58825684	2.54901958
906.59234619	2.47058821
906.59637451	2.45098042
906.59637451	2.47058821
906.60046387	2.52941179
906.60455322	2.56862736
906.60870361	2.49019599
906.61273193	2.43137264
906.61682129	2.39215684
906.62091064	2.47058821
906.62512207	2.49019599
906.62512207	2.49019599
906.62921143	2.37254906
906.63330078	2.39215684
906.63726807	2.39215684
906.64147949	2.43137264
906.64556885	2.41176462
906.64953613	2.41176462
906.65362549	2.43137264
906.65362549	2.45098042
906.65783691	2.33333325
906.66186523	2.31372547
906.66595459	2.47058821
906.66998291	2.33333325
906.67413330	2.45098042
906.67822266	2.47058821
906.68237305	2.45098042
906.68237305	2.49019599
906.68640137	2.49019599
906.69055176	2.45098042
906.69464111	2.43137264
906.69873047	2.39215684
906.70275879	2.49019599
906.70690918	2.50980401
906.71099854	2.45098042
906.71099854	2.39215684
906.71514893	2.35294127
906.71923828	2.37254906
906.72320557	2.37254906
906.72320557	2.43137264
906.72735596	2.49019599
906.73150635	2.49019599
906.73571777	2.37254906
906.73974609	2.37254906
906.73974609	2.45098042
906.74371338	2.47058821
906.74780273	2.47058821
906.75195313	2.45098042
906.75195313	2.41176462
906.75604248	2.35294127
906.76025391	2.45098042
906.76422119	2.47058821
906.76837158	2.47058821
906.76837158	2.41176462
906.77258301	2.39215684
906.77655029	2.41176462
906.78057861	2.43137264
906.78057861	2.43137264
906.78479004	2.45098042
906.78894043	2.43137264
906.79290771	2.41176462
906.79699707	2.35294127
906.79699707	2.29411769
906.80120850	2.39215684
906.80529785	2.43137264
906.80932617	2.45098042
906.80932617	2.43137264
906.81335449	2.35294127
906.81750488	2.39215684
906.82165527	2.33333325
906.82574463	2.41176462
906.82574463	2.52941179
906.82971191	2.45098042
906.83386230	2.37254906
906.83807373	2.35294127
906.83807373	2.37254906
906.84210205	2.45098042
906.84619141	2.47058821
906.85028076	2.39215684
906.85437012	2.31372547
906.85437012	2.35294127
906.85852051	2.41176462
906.86242676	2.41176462
906.86657715	2.47058821
906.86657715	2.47058821
906.87072754	2.41176462
906.87487793	2.41176462
906.87896729	2.41176462
906.88293457	2.45098042
906.88293457	2.49019599
906.88720703	2.47058821
906.89123535	2.41176462
906.89538574	2.43137264
906.89538574	2.41176462
906.89935303	2.45098042
906.90344238	2.49019599
906.90765381	2.54901958
906.91168213	2.50980401
906.91168213	2.47058821
906.91589355	2.41176462
906.91986084	2.43137264
906.92401123	2.56862736
906.92401123	2.58823538
906.92816162	2.45098042
906.93225098	2.45098042
906.93627930	2.45098042
906.94042969	2.49019599
906.94042969	2.52941179
906.94458008	2.54901958
906.94866943	2.54901958
906.95281982	2.50980401
906.95281982	2.49019599
906.95678711	2.47058821
906.96093750	2.52941179
906.96508789	2.60784316
906.96923828	2.54901958
906.96923828	2.43137264
906.97338867	2.50980401
906.97729492	2.47058821
906.98144531	2.52941179
906.98144531	2.54901958
906.98553467	2.54901958
906.98956299	2.52941179
906.99365234	2.49019599
906.99786377	2.47058821
907.00189209	2.56862736
907.00598145	2.60784316
907.01000977	2.54901958
907.01000977	2.50980401
907.01416016	2.47058821
907.01831055	2.52941179
907.02239990	2.60784316
907.02642822	2.58823538
907.03051758	2.58823538
907.03466797	2.50980401
907.03881836	2.52941179
907.03881836	2.54901958
907.04284668	2.58823538
907.04693604	2.64705873
907.05102539	2.58823538
907.05517578	2.54901958
907.05926514	2.54901958
907.06317139	2.54901958
907.06738281	2.60784316
907.06738281	2.62745094
907.07159424	2.56862736
907.07568359	2.52941179
907.07977295	2.54901958
907.08374023	2.68627453
907.08789063	2.70588231
907.09204102	2.58823538
907.09619141	2.54901958
907.09619141	2.60784316
907.10028076	2.60784316
907.10424805	2.68627453
907.10839844	2.70588231
907.10839844	2.64705873
907.11248779	2.52941179
907.11651611	2.58823538
907.12060547	2.58823538
907.12475586	2.64705873
907.12475586	2.64705873
907.12890625	2.56862736
907.13293457	2.60784316
907.13696289	2.54901958
907.13696289	2.52941179
907.14117432	2.64705873
907.14532471	2.74509811
907.14929199	2.56862736
907.15344238	2.49019599
907.15344238	2.56862736
907.15753174	2.62745094
907.16168213	2.56862736
907.16583252	2.62745094
907.16583252	2.68627453
907.16979980	2.64705873
907.17395020	2.50980401
907.17803955	2.50980401
907.18225098	2.58823538
907.18225098	2.70588231
907.18627930	2.60784316
907.19030762	2.60784316
907.19439697	2.58823538
907.19439697	2.49019599
907.19854736	2.54901958
907.20269775	2.68627453
907.20666504	2.70588231
907.21075439	2.60784316
907.21075439	2.49019599
907.21490479	2.47058821
907.21899414	2.52941179
907.22314453	2.62745094
907.22314453	2.68627453
907.22723389	2.62745094
907.23126221	2.56862736
907.23535156	2.54901958
907.23950195	2.56862736
907.23950195	2.68627453
907.24346924	2.66666675
907.24761963	2.60784316
907.25177002	2.56862736
907.25177002	2.47058821
907.25598145	2.50980401
907.25988770	2.60784316
907.26403809	2.62745094
907.26818848	2.64705873
907.26818848	2.58823538
907.27227783	2.52941179
907.27630615	2.50980401
907.28039551	2.62745094
907.28039551	2.68627453
907.28454590	2.60784316
907.28869629	2.60784316
907.29260254	2.52941179
907.29675293	2.52941179
907.29675293	2.56862736
907.30084229	2.60784316
907.30499268	2.62745094
907.30914307	2.64705873
907.30914307	2.56862736
907.31329346	2.60784316
907.31732178	2.60784316
907.32147217	2.62745094
907.32550049	2.66666675
907.32550049	2.64705873
907.32952881	2.54901958
907.33361816	2.54901958
907.33795166	2.64705873
907.33795166	2.66666675
907.34197998	2.66666675
907.34613037	2.68627453
907.35009766	2.56862736
907.35430908	2.64705873
907.35833740	2.66666675
907.36248779	2.68627453
907.36657715	2.72549009
907.36657715	2.66666675
907.37054443	2.58823538
907.37463379	2.58823538
907.37878418	2.66666675
907.38293457	2.70588231
907.38690186	2.72549009
907.39099121	2.66666675
907.39514160	2.68627453
907.39514160	2.64705873
907.39929199	2.66666675
907.40325928	2.72549009
907.40740967	2.74509811
907.41149902	2.70588231
907.41564941	2.70588231
907.41967773	2.74509811
907.42388916	2.78431368
907.42388916	2.76470590
907.42797852	2.70588231
907.43212891	2.60784316
907.43615723	2.64705873
907.44030762	2.72549009
907.44427490	2.72549009
907.44848633	2.72549009
907.45251465	2.66666675
907.45251465	2.66666675
907.45654297	2.64705873
907.46063232	2.68627453
907.46478271	2.66666675
907.46893311	2.56862736
907.47296143	2.62745094
907.47698975	2.66666675
907.48126221	2.66666675
907.48126221	2.64705873
907.48529053	2.60784316
907.48944092	2.60784316
907.49346924	2.64705873
907.49346924	2.58823538
907.49761963	2.60784316
907.50170898	2.62745094
907.50579834	2.60784316
907.50988770	2.62745094
907.50988770	2.62745094
907.51397705	2.56862736
907.51800537	2.56862736
907.52221680	2.56862736
907.52221680	2.58823538
907.52624512	2.64705873
907.53027344	2.64705873
907.53442383	2.60784316
907.53857422	2.54901958
907.53857422	2.56862736
907.54266357	2.54901958
907.54663086	2.60784316
907.55078125	2.60784316
907.55078125	2.58823538
907.55493164	2.52941179
907.55902100	2.52941179
907.56304932	2.54901958
907.56726074	2.58823538
907.56726074	2.58823538
907.57122803	2.56862736
907.57537842	2.50980401
907.57952881	2.52941179
907.57952881	2.58823538
907.58349609	2.62745094
907.58764648	2.68627453
907.59167480	2.62745094
907.59588623	2.56862736
907.59588623	2.54901958
907.59991455	2.58823538
907.60400391	2.60784316
907.60821533	2.68627453
907.60821533	2.60784316
907.61236572	2.52941179
907.61633301	2.52941179
907.62042236	2.62745094
907.62457275	2.66666675
907.62457275	2.64705873
907.62872314	2.64705873
907.63281250	2.60784316
907.63677979	2.58823538
907.63677979	2.54901958
907.64086914	2.60784316
907.64508057	2.64705873
907.64916992	2.60784316
907.65332031	2.49019599
907.65332031	2.54901958
907.65728760	2.58823538
907.66137695	2.50980401
907.66552734	2.56862736
907.66552734	2.66666675
907.66967773	2.64705873
907.67370605	2.49019599
907.67773438	2.49019599
907.68188477	2.52941179
907.68188477	2.64705873
907.68597412	2.66666675
907.69000244	2.62745094
907.69421387	2.54901958
907.69421387	2.52941179
907.69824219	2.50980401
907.70239258	2.58823538
907.70642090	2.62745094
907.71051025	2.68627453
907.71051025	2.58823538
907.71466064	2.50980401
907.71881104	2.56862736
907.72302246	2.58823538
907.72302246	2.62745094
907.72692871	2.70588231
907.73107910	2.66666675
907.73522949	2.52941179
907.73931885	2.52941179
907.74328613	2.58823538
907.74749756	2.70588231
907.75152588	2.66666675
907.75152588	2.56862736
907.75567627	2.56862736
907.75970459	2.58823538
907.76379395	2.64705873
907.76788330	2.72549009
907.77203369	2.60784316
907.77618408	2.52941179
907.78033447	2.56862736
907.78033447	2.60784316
907.78436279	2.66666675
907.78845215	2.70588231
907.79260254	2.64705873
907.79656982	2.60784316
907.80072021	2.66666675
907.80480957	2.64705873
907.80895996	2.70588231
907.80895996	2.68627453
907.81298828	2.56862736
907.81707764	2.58823538
907.82128906	2.64705873
907.82525635	2.66666675
907.82946777	2.72549009
907.83349609	2.64705873
907.83752441	2.60784316
907.83752441	2.66666675
907.84167480	2.60784316
907.84576416	2.64705873
907.84991455	2.74509811
907.84991455	2.68627453
907.85388184	2.56862736
907.85803223	2.56862736
907.86212158	2.60784316
907.86627197	2.60784316
907.86627197	2.68627453
907.87017822	2.56862736
907.87438965	2.52941179
907.87847900	2.52941179
907.87847900	2.60784316
907.88262939	2.58823538
907.88665771	2.58823538
907.89080811	2.56862736
907.89489746	2.50980401
907.89489746	2.47058821
907.89898682	2.56862736
907.90301514	2.60784316
907.90728760	2.66666675
907.90728760	2.68627453
907.91125488	2.66666675
907.91540527	2.58823538
907.91955566	2.60784316
907.92352295	2.68627453
907.92352295	2.66666675
907.92767334	2.66666675
907.93170166	2.68627453
907.93585205	2.62745094
907.93585205	2.62745094
907.93988037	2.68627453
907.94403076	2.68627453
907.94818115	2.70588231
907.95227051	2.62745094
907.95227051	2.62745094
907.95635986	2.66666675
907.96038818	2.64705873
907.96453857	2.66666675
907.96453857	2.68627453
907.96868896	2.70588231
907.97277832	2.72549009
907.97680664	2.58823538
907.98089600	2.60784316
907.98089600	2.70588231
907.98498535	2.74509811
907.98913574	2.70588231
907.99334717	2.68627453
907.99334717	2.66666675
907.99731445	2.60784316
908.00146484	2.64705873
908.00555420	2.66666675
908.00964355	2.70588231
908.00964355	2.72549009
908.01367188	2.64705873
908.01782227	2.58823538
908.02191162	2.66666675
908.02191162	2.72549009
908.02593994	2.68627453
908.03002930	2.68627453
908.03430176	2.70588231
908.03826904	2.60784316
908.03826904	2.60784316
908.04235840	2.66666675
908.04650879	2.66666675
908.05053711	2.58823538
908.05053711	2.62745094
908.05462646	2.66666675
908.05877686	2.64705873
908.06292725	2.64705873
908.06695557	2.66666675
908.06695557	2.62745094
908.07110596	2.58823538
908.07513428	2.60784316
908.07928467	2.62745094
908.07928467	2.62745094
908.08331299	2.66666675
908.08740234	2.64705873
908.09155273	2.58823538
908.09558105	2.58823538
908.09960938	2.54901958
908.10375977	2.62745094
908.10791016	2.68627453
908.10791016	2.60784316
908.11206055	2.54901958
908.11614990	2.60784316
908.12023926	2.64705873
908.12432861	2.52941179
908.12841797	2.60784316
908.13244629	2.62745094
908.13665771	2.52941179
908.13665771	2.45098042
908.14062500	2.54901958
908.14477539	2.60784316
908.14892578	2.56862736
908.15301514	2.60784316
908.15704346	2.62745094
908.16131592	2.56862736
908.16528320	2.62745094
908.16528320	2.68627453
908.16943359	2.66666675
908.17340088	2.54901958
908.17755127	2.49019599
908.18170166	2.54901958
908.18585205	2.50980401
908.18988037	2.56862736
908.19396973	2.64705873
908.19396973	2.60784316
908.19805908	2.62745094
908.20220947	2.62745094
908.20629883	2.64705873
908.21026611	2.62745094
908.21441650	2.64705873
908.21856689	2.56862736
908.22265625	2.64705873
908.22265625	2.70588231
908.22662354	2.68627453
908.23083496	2.60784316
908.23492432	2.56862736
908.23492432	2.54901958
908.23907471	2.56862736
908.24322510	2.66666675
908.24731445	2.70588231
908.25128174	2.60784316
908.25128174	2.62745094
908.25543213	2.58823538
908.25958252	2.60784316
908.26367188	2.72549009
908.26367188	2.66666675
908.26770020	2.64705873
908.27178955	2.58823538
908.27587891	2.58823538
908.28002930	2.58823538
908.28002930	2.68627453
908.28411865	2.76470590
908.28820801	2.70588231
908.29229736	2.58823538
908.29229736	2.56862736
908.29638672	2.56862736
908.30035400	2.60784316
908.30456543	2.68627453
908.30865479	2.64705873
908.30865479	2.54901958
908.31280518	2.54901958
908.31677246	2.60784316
908.32086182	2.60784316
908.32086182	2.64705873
908.32525635	2.64705873
908.32922363	2.58823538
908.33331299	2.56862736
908.33721924	2.58823538
908.33721924	2.60784316
908.34136963	2.70588231
908.34558105	2.70588231
908.34967041	2.58823538
908.34967041	2.54901958
908.35363770	2.64705873
908.35778809	2.64705873
908.36193848	2.60784316
908.36602783	2.68627453
908.36602783	2.66666675
908.37005615	2.60784316
908.37432861	2.62745094
908.37841797	2.62745094
908.37841797	2.60784316
908.38238525	2.64705873
908.38653564	2.70588231
908.39056396	2.64705873
908.39465332	2.62745094
908.39465332	2.62745094
908.39874268	2.52941179
908.40295410	2.64705873
908.40704346	2.74509811
908.40704346	2.64705873
908.41101074	2.58823538
908.41522217	2.60784316
908.41937256	2.58823538
908.42352295	2.64705873
908.42352295	2.72549009
908.42749023	2.66666675
908.43157959	2.60784316
908.43572998	2.64705873
908.43572998	2.62745094
908.43988037	2.60784316
908.44384766	2.70588231
908.44793701	2.74509811
908.45202637	2.58823538
908.45617676	2.66666675
908.46026611	2.56862736
908.46435547	2.66666675
908.46435547	2.76470590
908.46838379	2.66666675
908.47253418	2.62745094
908.47668457	2.60784316
908.48059082	2.62745094
908.48474121	2.78431368
908.48889160	2.76470590
908.49304199	2.60784316
908.49304199	2.70588231
908.49700928	2.72549009
908.50128174	2.68627453
908.50524902	2.76470590
908.50939941	2.64705873
908.51342773	2.62745094
908.51757813	2.66666675
908.52166748	2.66666675
908.52166748	2.70588231
908.52575684	2.78431368
908.52990723	2.74509811
908.53393555	2.64705873
908.53802490	2.66666675
908.54205322	2.72549009
908.54626465	2.80392146
908.55041504	2.72549009
908.55041504	2.64705873
908.55438232	2.66666675
908.55853271	2.70588231
908.56262207	2.70588231
908.56677246	2.80392146
908.57073975	2.72549009
908.57489014	2.64705873
908.57897949	2.72549009
908.57897949	2.66666675
908.58312988	2.72549009
908.58721924	2.80392146
908.59124756	2.74509811
908.59124756	2.70588231
908.59539795	2.70588231
908.59954834	2.74509811
908.60351563	2.78431368
908.60766602	2.88235283
908.60766602	2.82352948
908.61175537	2.64705873
908.61590576	2.70588231
908.62005615	2.80392146
908.62005615	2.76470590
908.62402344	2.82352948
908.62829590	2.92156863
908.63232422	2.80392146
908.63641357	2.64705873
908.63641357	2.66666675
908.64038086	2.74509811
908.64453125	2.80392146
908.64868164	2.82352948
908.64868164	2.68627453
908.65277100	2.64705873
908.65679932	2.70588231
908.66094971	2.78431368
908.66497803	2.80392146
908.66497803	2.82352948
908.66912842	2.76470590
908.67333984	2.70588231
908.67724609	2.72549009
908.67724609	2.74509811
908.68139648	2.70588231
908.68548584	2.74509811
908.68969727	2.80392146
908.69378662	2.78431368
908.69378662	2.72549009
908.69775391	2.72549009
908.70184326	2.72549009
908.70599365	2.74509811
908.70599365	2.78431368
908.71002197	2.76470590
908.71423340	2.68627453
908.71826172	2.64705873
908.72241211	2.76470590
908.72241211	2.78431368
908.72650146	2.72549009
908.73052979	2.70588231
908.73468018	2.62745094
908.73468018	2.68627453
908.73876953	2.80392146
908.74298096	2.80392146
908.74694824	2.74509811
908.75103760	2.76470590
908.75103760	2.68627453
908.75518799	2.64705873
908.75933838	2.70588231
908.76361084	2.76470590
908.76361084	2.80392146
908.76745605	2.78431368
908.77154541	2.76470590
908.77569580	2.74509811
908.77978516	2.70588231
908.77978516	2.72549009
908.78375244	2.76470590
908.78802490	2.80392146
908.79199219	2.80392146
908.79199219	2.64705873
908.79614258	2.70588231
908.80029297	2.76470590
908.80432129	2.78431368
908.80847168	2.80392146
908.80847168	2.76470590
908.81256104	2.74509811
908.81671143	2.70588231
908.82067871	2.74509811
908.82067871	2.80392146
908.82482910	2.82352948
908.82891846	2.78431368
908.83306885	2.76470590
908.83703613	2.66666675
908.84124756	2.66666675
908.84527588	2.80392146
908.84942627	2.88235283
908.84942627	2.84313726
908.85351563	2.70588231
908.85754395	2.70588231
908.86169434	2.70588231
908.86572266	2.84313726
908.86987305	2.76470590
908.87390137	2.66666675
908.87799072	2.66666675
908.87799072	2.72549009
908.88208008	2.72549009
908.88623047	2.76470590
908.89038086	2.84313726
908.89440918	2.70588231
908.89843750	2.76470590
908.90258789	2.84313726
908.90679932	2.78431368
908.90679932	2.78431368
908.91070557	2.72549009
908.91485596	2.76470590
908.91900635	2.70588231
908.92315674	2.82352948
908.92730713	2.84313726
908.93127441	2.72549009
908.93542480	2.70588231
908.93542480	2.74509811
908.93957520	2.72549009
908.94354248	2.78431368
908.94769287	2.82352948
908.94769287	2.76470590
908.95178223	2.72549009
908.95593262	2.74509811
908.96002197	2.74509811
908.96411133	2.70588231
908.96411133	2.78431368
908.96832275	2.78431368
908.97229004	2.70588231
908.97637939	2.66666675
908.97637939	2.76470590
908.98046875	2.76470590
908.98455811	2.82352948
908.98870850	2.80392146
908.99285889	2.70588231
908.99285889	2.68627453
908.99694824	2.70588231
909.00091553	2.78431368
909.00500488	2.86274505
909.00500488	2.86274505
909.00921631	2.76470590
909.01330566	2.72549009
909.01727295	2.70588231
909.02142334	2.68627453
909.02142334	2.70588231
909.02551270	2.78431368
909.02966309	2.80392146
909.03381348	2.82352948
909.03381348	2.76470590
909.03778076	2.74509811
909.04187012	2.74509811
909.04602051	2.82352948
909.05017090	2.84313726
909.05017090	2.82352948
909.05432129	2.86274505
909.05834961	2.88235283
909.06243896	2.86274505
909.06243896	2.86274505
909.06658936	2.86274505
909.07067871	2.76470590
909.07470703	2.80392146
909.07873535	2.90196085
909.07873535	2.86274505
909.08288574	2.86274505
909.08691406	2.92156863
909.09106445	2.96078420
909.09106445	2.90196085
909.09515381	2.90196085
909.09924316	3.03921580
909.10345459	3.11764717
909.10748291	2.98039222
909.10748291	2.90196085
909.11151123	2.86274505
909.11566162	2.82352948
909.11981201	3.00000000
909.11981201	3.07843137
909.12384033	3.25490189
909.12792969	3.31372547
909.13208008	3.17647052
909.13616943	3.03921580
909.13616943	2.94117641
909.14025879	2.92156863
909.14428711	2.96078420
909.14843750	3.07843137
909.14843750	3.07843137
909.15252686	3.17647052
909.15667725	3.11764717
909.16064453	3.17647052
909.16485596	3.27450991
909.16485596	3.31372547
909.16894531	3.13725495
909.17309570	2.92156863
909.17718506	2.94117641
909.17718506	2.96078420
909.18133545	3.17647052
909.18530273	3.47058821
909.18939209	3.23529410
909.19360352	2.90196085
909.19360352	2.94117641
909.19757080	3.03921580
909.20172119	2.92156863
909.20581055	2.84313726
909.20581055	2.80392146
909.20989990	2.72549009
909.21386719	2.74509811
909.21807861	2.82352948
909.22216797	3.03921580
909.22625732	3.25490189
909.23022461	3.41176462
909.23437500	3.54901958
909.23437500	3.27450991
909.23852539	2.88235283
909.24261475	2.86274505
909.24676514	3.00000000
909.25079346	3.23529410
909.25488281	3.07843137
909.25897217	2.94117641
909.26312256	2.98039222
909.26312256	3.01960778
909.26721191	3.03921580
909.27124023	3.07843137
909.27532959	3.03921580
909.27947998	3.09803915
909.28356934	3.25490189
909.28765869	3.29411769
909.29174805	3.21568632
909.29174805	3.19607854
909.29589844	3.07843137
909.29998779	3.00000000
909.30395508	3.15686274
909.30828857	3.19607854
909.31231689	3.13725495
909.31646729	3.11764717
909.32055664	3.17647052
909.32055664	3.19607854
909.32458496	3.49019599
909.32867432	3.41176462
909.33282471	3.35294127
909.33691406	3.27450991
909.34088135	3.19607854
909.34503174	3.15686274
909.34918213	3.31372547
909.34918213	3.25490189
909.35333252	3.23529410
909.35729980	3.19607854
909.36138916	3.27450991
909.36138916	3.41176462
909.36560059	3.33333325
909.36968994	3.31372547
909.37371826	3.13725495
909.37780762	3.05882359
909.37780762	3.13725495
909.38195801	3.21568632
909.38604736	3.17647052
909.39019775	3.05882359
909.39019775	3.03921580
909.39434814	3.15686274
909.39831543	3.13725495
909.40240479	3.13725495
909.40655518	3.17647052
909.40655518	3.21568632
909.41052246	3.05882359
909.41461182	3.00000000
909.41882324	3.09803915
909.41882324	3.19607854
909.42291260	3.09803915
909.42700195	3.03921580
909.43103027	3.00000000
909.43530273	2.88235283
909.43530273	2.90196085
909.43933105	3.19607854
909.44335938	3.05882359
909.44738770	2.94117641
909.44738770	2.84313726
909.45153809	2.84313726
909.45562744	2.78431368
909.45977783	2.84313726
909.46386719	3.03921580
909.46386719	3.09803915
909.46789551	2.94117641
909.47204590	2.80392146
909.47619629	2.84313726
909.47619629	2.84313726
909.48028564	2.70588231
909.48425293	2.84313726
909.48846436	3.01960778
909.49255371	2.86274505
909.49255371	2.76470590
909.49664307	2.78431368
909.50061035	2.78431368
909.50494385	2.76470590
909.50494385	2.82352948
909.50897217	2.94117641
909.51306152	2.88235283
909.51721191	2.90196085
909.52136230	2.90196085
909.52136230	2.76470590
909.52532959	2.74509811
909.52941895	2.80392146
909.53356934	2.88235283
909.53356934	2.86274505
909.53765869	2.76470590
909.54162598	2.76470590
909.54577637	2.76470590
909.54998779	2.68627453
909.54998779	2.64705873
909.55383301	2.74509811
909.55798340	2.74509811
909.56225586	2.64705873
909.56225586	2.74509811
909.56628418	2.78431368
909.57019043	2.60784316
909.57440186	2.50980401
909.57849121	2.50980401
909.57849121	2.64705873
909.58258057	2.62745094
909.58673096	2.58823538
909.59075928	2.66666675
909.59075928	2.56862736
909.59484863	2.47058821
909.59893799	2.56862736
909.60308838	2.72549009
909.60723877	2.60784316
909.61126709	2.52941179
909.61535645	2.45098042
909.61950684	2.52941179
909.61950684	2.60784316
909.62365723	2.68627453
909.62762451	2.68627453
909.63171387	2.62745094
909.63586426	2.52941179
909.64001465	2.49019599
909.64434814	2.52941179
909.64825439	2.54901958
909.64825439	2.54901958
909.65228271	2.52941179
909.65643311	2.56862736
909.66052246	2.54901958
909.66455078	2.58823538
909.66870117	2.58823538
909.67279053	2.58823538
909.67687988	2.54901958
909.67687988	2.49019599
909.68096924	2.54901958
909.68499756	2.60784316
909.68920898	2.50980401
909.69335938	2.54901958
909.69726563	2.45098042
909.70141602	2.45098042
909.70550537	2.50980401
909.70550537	2.54901958
909.70971680	2.50980401
909.71380615	2.54901958
909.71777344	2.54901958
909.72192383	2.64705873
909.72601318	2.66666675
909.73004150	2.52941179
909.73425293	2.29411769
909.73425293	2.43137264
909.73828125	2.58823538
909.74237061	2.54901958
909.74652100	2.68627453
909.74652100	2.74509811
909.75048828	2.54901958
909.75457764	2.43137264
909.75872803	2.47058821
909.76287842	2.49019599
909.76287842	2.54901958
909.76690674	2.54901958
909.77105713	2.60784316
909.77520752	2.45098042
909.77520752	2.27450991
909.77923584	2.47058821
909.78332520	2.52941179
909.78741455	2.52941179
909.79150391	2.47058821
909.79150391	2.52941179
909.79559326	2.58823538
909.79974365	2.39215684
909.80383301	2.43137264
909.80383301	2.58823538
909.80786133	2.50980401
909.81201172	2.41176462
909.81610107	2.45098042
909.82019043	2.52941179
909.82019043	2.45098042
909.82421875	2.56862736
909.82836914	2.56862736
909.83258057	2.54901958
909.83258057	2.47058821
909.83666992	2.49019599
909.84069824	2.62745094
909.84472656	2.64705873
909.84881592	2.58823538
909.84881592	2.58823538
909.85302734	2.47058821
909.85717773	2.45098042
909.86126709	2.58823538
909.86126709	2.66666675
909.86529541	2.58823538
909.86938477	2.45098042
909.87359619	2.49019599
909.87768555	2.52941179
909.87768555	2.52941179
909.88171387	2.58823538
909.88580322	2.47058821
909.88995361	2.49019599
909.88995361	2.43137264
909.89398193	2.39215684
909.89819336	2.43137264
909.90216064	2.49019599
909.90637207	2.56862736
909.90637207	2.74509811
909.91040039	2.68627453
909.91436768	2.43137264
909.91857910	2.41176462
909.91857910	2.47058821
909.92266846	2.60784316
909.92675781	2.58823538
909.93072510	2.66666675
909.93493652	2.49019599
909.93493652	2.43137264
909.93908691	2.43137264
909.94317627	2.58823538
909.94732666	2.72549009
909.94732666	2.66666675
909.95129395	2.50980401
909.95538330	2.41176462
909.95959473	2.45098042
909.96368408	2.56862736
909.96368408	2.58823538
909.96765137	2.66666675
909.97186279	2.58823538
909.97595215	2.54901958
909.97595215	2.56862736
909.98004150	2.41176462
909.98400879	2.43137264
909.98822021	2.62745094
909.99230957	2.37254906
909.99639893	2.43137264
910.00048828	2.50980401
910.00451660	2.56862736
910.00451660	2.60784316
910.00860596	2.56862736
910.01275635	2.43137264
910.01690674	2.47058821
910.02105713	2.54901958
910.02502441	2.58823538
910.02911377	2.43137264
910.03326416	2.49019599
910.03326416	2.50980401
910.03729248	2.54901958
910.04138184	2.52941179
910.04553223	2.45098042
910.04968262	2.47058821
910.05377197	2.39215684
910.05780029	2.41176462
910.06188965	2.27450991
910.06188965	2.33333325
910.06610107	2.49019599
910.07006836	2.56862736
910.07427979	2.47058821
910.07824707	2.49019599
910.08239746	2.50980401
910.08648682	2.52941179
910.09063721	2.56862736
910.09063721	2.60784316
910.09454346	2.49019599
910.09875488	2.41176462
910.10284424	2.52941179
910.10699463	2.54901958
910.11102295	2.49019599
910.11529541	2.52941179
910.11926270	2.54901958
910.11926270	2.52941179
910.12341309	2.66666675
910.12738037	2.78431368
910.13153076	2.58823538
910.13153076	2.41176462
910.13568115	2.35294127
910.13983154	2.45098042
910.14392090	2.62745094
910.14788818	2.62745094
910.14788818	2.62745094
910.15203857	2.58823538
910.15618896	2.50980401
910.16027832	2.47058821
910.16027832	2.49019599
910.16424561	2.62745094
910.16845703	2.70588231
910.17260742	2.62745094
910.17663574	2.62745094
910.17663574	2.68627453
910.18066406	2.60784316
910.18481445	2.78431368
910.18890381	2.78431368
910.18890381	2.76470590
910.19305420	2.82352948
910.19720459	2.72549009
910.20129395	2.80392146
910.20526123	2.88235283
910.20526123	2.88235283
910.20941162	2.94117641
910.21356201	2.86274505
910.21765137	2.70588231
910.21765137	2.74509811
910.22174072	2.74509811
910.22576904	2.72549009
910.22985840	2.84313726
910.23400879	2.70588231
910.23400879	2.66666675
910.23803711	2.72549009
910.24212646	2.80392146
910.24615479	2.82352948
910.24615479	2.76470590
910.25036621	2.68627453
910.25439453	2.62745094
910.25854492	2.60784316
910.26263428	2.66666675
910.26263428	2.72549009
910.26678467	2.70588231
910.27075195	2.64705873
910.27490234	2.66666675
910.27490234	2.60784316
910.27893066	2.50980401
910.28314209	2.47058821
910.28717041	2.49019599
910.29125977	2.49019599
910.29125977	2.43137264
910.29541016	2.52941179
910.29949951	2.50980401
910.30358887	2.47058821
910.30358887	2.50980401
910.30767822	2.49019599
910.31176758	2.49019599
910.31585693	2.50980401
910.32006836	2.43137264
910.32006836	2.52941179
910.32403564	2.60784316
910.32824707	2.64705873
910.33227539	2.70588231
910.33227539	2.72549009
910.33642578	2.70588231
910.34057617	2.74509811
910.34448242	2.84313726
910.34863281	3.03921580
910.34863281	3.00000000
910.35278320	2.82352948
910.35693359	2.76470590
910.36102295	2.86274505
910.36102295	2.94117641
910.36499023	3.07843137
910.36907959	2.98039222
910.37329102	2.88235283
910.37738037	2.90196085
910.38134766	2.98039222
910.38549805	3.00000000
910.38964844	2.98039222
910.38964844	2.88235283
910.39373779	2.84313726
910.39776611	2.80392146
910.40191650	2.90196085
910.40606689	2.94117641
910.41015625	2.88235283
910.41424561	2.88235283
910.41827393	2.90196085
910.41827393	2.84313726
910.42242432	2.84313726
910.42651367	2.94117641
910.43054199	2.92156863
910.43463135	2.86274505
910.43878174	2.88235283
910.44287109	2.78431368
910.44702148	2.88235283
910.44702148	2.94117641
910.45098877	2.78431368
910.45526123	2.76470590
910.45928955	2.70588231
910.46343994	2.82352948
910.46746826	2.90196085
910.47155762	2.88235283
910.47570801	2.82352948
910.47570801	2.70588231
910.47973633	2.66666675
910.48388672	2.88235283
910.48785400	2.96078420
910.49206543	2.66666675
910.49615479	2.66666675
910.50018311	2.82352948
910.50445557	2.94117641
910.50445557	3.01960778
910.50842285	2.94117641
910.51257324	2.78431368
910.51672363	2.72549009
910.51672363	2.74509811
910.52075195	2.84313726
910.52478027	2.96078420
910.52893066	2.94117641
910.53302002	2.84313726
910.53302002	2.76470590
910.53723145	2.78431368
910.54132080	2.90196085
910.54522705	2.94117641
910.54522705	2.92156863
910.54937744	2.84313726
910.55352783	2.80392146
910.55755615	2.76470590
910.56164551	2.76470590
910.56164551	2.92156863
910.56579590	3.01960778
910.56988525	2.84313726
910.57403564	2.80392146
910.57403564	2.98039222
910.57800293	3.09803915
910.58227539	2.92156863
910.58624268	2.80392146
910.59039307	2.78431368
910.59039307	2.68627453
910.59429932	2.68627453
910.59844971	2.70588231
910.60266113	2.78431368
910.60266113	2.84313726
910.60681152	2.86274505
910.61077881	2.82352948
910.61486816	2.80392146
910.61901855	2.86274505
910.61901855	3.11764717
910.62316895	3.27450991
910.62725830	3.27450991
910.63116455	3.09803915
910.63116455	3.03921580
910.63531494	3.13725495
910.63952637	3.17647052
910.64361572	2.96078420
910.64776611	2.76470590
910.64776611	2.62745094
910.65173340	2.43137264
910.65588379	2.58823538
910.65997314	2.62745094
910.65997314	2.64705873
910.66400146	2.64705873
910.66827393	2.72549009
910.67230225	2.74509811
910.67639160	2.64705873
910.67639160	2.72549009
910.68054199	2.80392146
910.68450928	2.62745094
910.68865967	2.62745094
910.68865967	2.64705873
910.69274902	2.58823538
910.69683838	2.56862736
910.70080566	2.64705873
910.70501709	2.76470590
910.70501709	2.94117641
910.70904541	2.86274505
910.71325684	2.80392146
910.71734619	2.49019599
910.71734619	2.43137264
910.72137451	2.50980401
910.72552490	2.64705873
910.72961426	2.66666675
910.73382568	2.11764717
910.73779297	1.94117641
910.74188232	1.96078432
910.74597168	1.94117641
910.74597168	1.78431368
910.75012207	1.72549021
910.75433350	1.78431368
910.75823975	1.66666663
910.76239014	1.82352936
910.76647949	1.72549021
910.77081299	1.58823526
910.77471924	1.52941179
910.77471924	1.45098042
910.77880859	1.47058821
910.78289795	1.52941179
910.78704834	1.60784316
910.79107666	1.45098042
910.79528809	1.43137252
910.79925537	1.39215684
910.80334473	1.39215684
910.80334473	1.47058821
910.80749512	1.49019611
910.81152344	1.52941179
910.81555176	1.62745094
910.81970215	1.74509799
910.82391357	1.82352936
910.82788086	1.96078432
910.83197021	1.98039210
910.83197021	2.00000000
910.83612061	1.98039210
910.84027100	2.13725495
910.84436035	2.27450991
910.84838867	2.47058821
910.85253906	2.39215684
910.85668945	2.41176462
910.86077881	2.47058821
910.86077881	2.58823538
910.86474609	2.80392146
910.86889648	2.92156863
910.87292480	2.90196085
910.87292480	2.84313726
910.87707520	3.01960778
910.88122559	3.29411769
910.88525391	3.52941179
910.88940430	3.66666675
910.88940430	3.78431368
910.89349365	4.03921556
910.89764404	4.41176462
910.90167236	4.72549009
910.90167236	4.88235283
910.90576172	4.98039198
910.90991211	4.98039198
910.91406250	4.98039198
910.91802979	4.98039198
910.91802979	4.98039198
910.92236328	4.98039198
910.92626953	4.98039198
910.93035889	4.96078444
910.93035889	4.98039198
910.93438721	4.98039198
910.93853760	4.94117641
910.94262695	4.88235283
910.94671631	4.92156839
910.94671631	4.90196085
910.95074463	4.80392170
910.95495605	4.82352924
910.95904541	4.78431368
910.95904541	4.82352924
910.96313477	4.88235283
910.96728516	4.86274529
910.97137451	4.76470566
910.97546387	4.68627453
910.97546387	4.70588255
910.97949219	4.66666651
910.98364258	4.68627453
910.98773193	4.64705896
910.98773193	4.60784292
910.99182129	4.43137264
910.99584961	4.43137264
911.00000000	4.43137264
911.00415039	4.47058821
911.00415039	4.43137264
911.00823975	4.41176462
911.01226807	4.27450991
911.01635742	4.17647076
911.01635742	4.27450991
911.02044678	4.19607830
911.02447510	4.21568632
911.02862549	4.19607830
911.03277588	4.01960802
911.03277588	4.00000000
911.03686523	4.03921556
911.04095459	3.98039222
911.04498291	3.90196085
911.04498291	3.82352948
911.04913330	3.88235283
911.05328369	3.78431368
911.05731201	3.68627453
911.06134033	3.62745094
911.06134033	3.66666675
911.06549072	3.68627453
911.06951904	3.64705873
911.07379150	3.56862736
911.07379150	3.52941179
911.07769775	3.45098042
911.08184814	3.41176462
911.08599854	3.47058821
911.09008789	3.52941179
911.09008789	3.35294127
911.09423828	3.31372547
911.09820557	3.31372547
911.10229492	3.19607854
911.10229492	3.33333325
911.10650635	3.25490189
911.11053467	3.21568632
911.11462402	3.13725495
911.11865234	3.00000000
911.12286377	3.09803915
911.12701416	3.07843137
911.13110352	3.01960778
911.13110352	2.94117641
911.13525391	2.82352948
911.13928223	2.78431368
911.14337158	2.82352948
911.14752197	2.86274505
911.15155029	2.76470590
911.15563965	2.56862736
911.15979004	2.58823538
911.15979004	2.58823538
911.16394043	2.70588231
911.16790771	2.68627453
911.17205811	2.62745094
911.17620850	2.45098042
911.18029785	2.45098042
911.18438721	2.52941179
911.18835449	2.52941179
911.18835449	2.50980401
911.19256592	2.39215684
911.19659424	2.29411769
911.20074463	2.31372547
911.20471191	2.43137264
911.20886230	2.37254906
911.21295166	2.19607854
911.21710205	2.17647052
911.21710205	2.23529410
911.22119141	2.33333325
911.22521973	2.31372547
911.22930908	2.31372547
911.23352051	2.15686274
911.23767090	2.21568632
911.24169922	2.25490189
911.24578857	2.29411769
911.24578857	2.29411769
911.24987793	2.13725495
911.25402832	2.09803915
911.25817871	2.07843137
911.25817871	2.11764717
911.26226807	2.23529410
911.26623535	2.23529410
911.27044678	2.13725495
911.27453613	2.03921580
911.27453613	2.01960778
911.27856445	2.05882359
911.28265381	2.17647052
911.28680420	2.17647052
911.28680420	2.07843137
911.29095459	2.01960778
911.29492188	2.05882359
911.29901123	2.11764717
911.30310059	2.15686274
911.30310059	2.15686274
911.30731201	2.13725495
911.31127930	2.11764717
911.31536865	2.05882359
911.31536865	2.15686274
911.31951904	2.11764717
911.32366943	2.13725495
911.32781982	2.19607854
911.33178711	2.13725495
911.33178711	2.13725495
911.33593750	2.15686274
911.34008789	2.29411769
911.34417725	2.27450991
911.34417725	2.27450991
911.34832764	2.23529410
911.35229492	2.17647052
911.35644531	2.17647052
911.36053467	2.25490189
911.36053467	2.21568632
911.36450195	2.23529410
911.36865234	2.25490189
911.37286377	2.23529410
911.37286377	2.19607854
911.37689209	2.23529410
911.38098145	2.19607854
911.38500977	2.23529410
911.38922119	2.17647052
911.38922119	2.15686274
911.39324951	2.15686274
911.39739990	2.25490189
911.40148926	2.29411769
911.40148926	2.33333325
911.40551758	2.33333325
911.40960693	2.27450991
911.41375732	2.21568632
911.41784668	2.29411769
911.41784668	2.29411769
911.42193604	2.23529410
911.42602539	2.27450991
911.43011475	2.23529410
911.43011475	2.35294127
911.43426514	2.35294127
911.43823242	2.27450991
911.44244385	2.23529410
911.44647217	2.27450991
911.44647217	2.31372547
911.45056152	2.41176462
911.45465088	2.39215684
911.45874023	2.27450991
911.45874023	2.17647052
911.46282959	2.19607854
911.46697998	2.33333325
911.47131348	2.35294127
911.47534180	2.41176462
911.47534180	2.29411769
911.47930908	2.17647052
911.48339844	2.19607854
911.48748779	2.31372547
911.48748779	2.35294127
911.49151611	2.39215684
911.49566650	2.27450991
911.49975586	2.27450991
911.50378418	2.31372547
911.50787354	2.33333325
911.51196289	2.33333325
911.51611328	2.25490189
911.51611328	2.23529410
911.52026367	2.23529410
911.52441406	2.29411769
911.52832031	2.45098042
911.53247070	2.39215684
911.53668213	2.23529410
911.54083252	2.25490189
911.54492188	2.31372547
911.54492188	2.37254906
911.54882813	2.39215684
911.55297852	2.39215684
911.55718994	2.39215684
911.56121826	2.29411769
911.56524658	2.39215684
911.56939697	2.54901958
911.57348633	2.39215684
911.57348633	2.33333325
911.57763672	2.31372547
911.58160400	2.33333325
911.58569336	2.35294127
911.58990479	2.45098042
911.59399414	2.27450991
911.59796143	2.23529410
911.60241699	2.25490189
911.60241699	2.43137264
911.60626221	2.37254906
911.61041260	2.43137264
911.61450195	2.31372547
911.61846924	2.35294127
911.62261963	2.39215684
911.62677002	2.47058821
911.63085938	2.39215684
911.63085938	2.37254906
911.63476563	2.41176462
911.63897705	2.35294127
911.64324951	2.35294127
911.64324951	2.47058821
911.64721680	2.45098042
911.65124512	2.37254906
911.65539551	2.27450991
911.65948486	2.23529410
911.65948486	2.31372547
911.66363525	2.41176462
911.66760254	2.39215684
911.67169189	2.35294127
911.67169189	2.27450991
911.67584229	2.25490189
911.67993164	2.27450991
911.68408203	2.39215684
911.68823242	2.41176462
911.68823242	2.37254906
911.69219971	2.31372547
911.69635010	2.27450991
911.70050049	2.27450991
911.70050049	2.35294127
911.70446777	2.45098042
911.70855713	2.43137264
911.71270752	2.37254906
911.71685791	2.19607854
911.71685791	2.23529410
911.72094727	2.39215684
911.72497559	2.49019599
911.72918701	2.47058821
911.72918701	2.37254906
911.73321533	2.29411769
911.73736572	2.19607854
911.74127197	2.35294127
911.74542236	2.45098042
911.74542236	2.43137264
911.74957275	2.39215684
911.75372314	2.31372547
911.75787354	2.21568632
911.75787354	2.33333325
911.76184082	2.35294127
911.76599121	2.41176462
911.77014160	2.37254906
911.77429199	2.27450991
911.77429199	2.23529410
911.77819824	2.31372547
911.78234863	2.37254906
911.78649902	2.41176462
911.78649902	2.41176462
911.79064941	2.33333325
911.79461670	2.25490189
911.79870605	2.31372547
911.80310059	2.43137264
911.80310059	2.45098042
911.80706787	2.47058821
911.81115723	2.37254906
911.81524658	2.29411769
911.81524658	2.33333325
911.81921387	2.43137264
911.82336426	2.43137264
911.82751465	2.43137264
911.83160400	2.39215684
911.83160400	2.31372547
911.83551025	2.33333325
911.83972168	2.37254906
911.84387207	2.37254906
911.84387207	2.49019599
911.84783936	2.47058821
911.85198975	2.39215684
911.85620117	2.37254906
911.86022949	2.37254906
911.86022949	2.43137264
911.86431885	2.49019599
911.86828613	2.43137264
911.87249756	2.35294127
911.87249756	2.37254906
911.87658691	2.37254906
911.88067627	2.45098042
911.88482666	2.47058821
911.88879395	2.45098042
911.89294434	2.39215684
911.89709473	2.33333325
911.90124512	2.45098042
911.90124512	2.49019599
911.90527344	2.50980401
911.90930176	2.56862736
911.91345215	2.49019599
911.91760254	2.52941179
911.92163086	2.50980401
911.92578125	2.50980401
911.92993164	2.56862736
911.92993164	2.52941179
911.93408203	2.47058821
911.93804932	2.41176462
911.94232178	2.50980401
911.94628906	2.52941179
911.95037842	2.50980401
911.95446777	2.47058821
911.95855713	2.50980401
911.95855713	2.47058821
911.96264648	2.50980401
911.96673584	2.56862736
911.97094727	2.60784316
911.97491455	2.52941179
911.97900391	2.52941179
911.98315430	2.52941179
911.98724365	2.60784316
911.98724365	2.64705873
911.99127197	2.54901958
911.99542236	2.47058821
911.99951172	2.54901958
912.00360107	2.54901958
912.00775146	2.54901958
912.01177979	2.54901958
912.01586914	2.58823538
912.01586914	2.50980401
912.01995850	2.33333325
912.02416992	2.52941179
912.02832031	2.64705873
912.03228760	2.50980401
912.03643799	2.52941179
912.04058838	2.50980401
912.04467773	2.52941179
912.04467773	2.58823538
912.04864502	2.66666675
912.05273438	2.64705873
912.05694580	2.50980401
912.05694580	2.50980401
912.06097412	2.49019599
912.06500244	2.54901958
912.06921387	2.56862736
912.07324219	2.45098042
912.07324219	2.49019599
912.07727051	2.43137264
912.08135986	2.43137264
912.08551025	2.52941179
912.08551025	2.56862736
912.08966064	2.56862736
912.09375000	2.54901958
912.09783936	2.45098042
912.10186768	2.52941179
912.10186768	2.54901958
912.10601807	2.58823538
912.11010742	2.62745094
912.11419678	2.56862736
912.11419678	2.43137264
912.11822510	2.43137264
912.12231445	2.52941179
912.12646484	2.50980401
912.13055420	2.56862736
912.13055420	2.50980401
912.13458252	2.43137264
912.13867188	2.47058821
912.14282227	2.56862736
912.14282227	2.58823538
912.14697266	2.62745094
912.15112305	2.58823538
912.15527344	2.45098042
912.15924072	2.43137264
912.15924072	2.52941179
912.16333008	2.52941179
912.16748047	2.64705873
912.17163086	2.70588231
912.17163086	2.52941179
912.17565918	2.43137264
912.17980957	2.45098042
912.18389893	2.52941179
912.18798828	2.62745094
912.18798828	2.60784316
912.19195557	2.49019599
912.19604492	2.47058821
912.20019531	2.47058821
912.20019531	2.52941179
912.20434570	2.64705873
912.20831299	2.62745094
912.21246338	2.54901958
912.21661377	2.49019599
912.21661377	2.54901958
912.22070313	2.50980401
912.22473145	2.66666675
912.22882080	2.68627453
912.22882080	2.60784316
912.23297119	2.41176462
912.23706055	2.52941179
912.24121094	2.49019599
912.24511719	2.60784316
912.24511719	2.68627453
912.24932861	2.56862736
912.25335693	2.49019599
912.25756836	2.50980401
912.25756836	2.60784316
912.26159668	2.58823538
912.26568604	2.62745094
912.26983643	2.70588231
912.27404785	2.58823538
912.27404785	2.54901958
912.27795410	2.52941179
912.28222656	2.58823538
912.28619385	2.70588231
912.28619385	2.70588231
912.29046631	2.60784316
912.29455566	2.54901958
912.29852295	2.56862736
912.30267334	2.72549009
912.30676270	2.78431368
912.31091309	2.76470590
912.31500244	2.70588231
912.31500244	2.60784316
912.31896973	2.56862736
912.32312012	2.50980401
912.32720947	2.64705873
912.33135986	2.60784316
912.33532715	2.62745094
912.33953857	2.74509811
912.34368896	2.86274505
912.34368896	2.90196085
912.34777832	2.80392146
912.35174561	2.64705873
912.35589600	2.58823538
912.36004639	2.52941179
912.36419678	2.54901958
912.36828613	2.62745094
912.37225342	2.72549009
912.37225342	2.82352948
912.37640381	2.86274505
912.38055420	3.11764717
912.38464355	3.13725495
912.38861084	3.05882359
912.39270020	3.03921580
912.39691162	3.25490189
912.40100098	3.41176462
912.40100098	3.37254906
912.40490723	3.27450991
912.40917969	3.27450991
912.41320801	2.98039222
912.41735840	2.49019599
912.42138672	2.43137264
912.42547607	2.41176462
912.42956543	2.64705873
912.42956543	2.90196085
912.43371582	2.88235283
912.43786621	2.78431368
912.44207764	2.80392146
912.44207764	2.92156863
912.44598389	2.90196085
912.45013428	2.84313726
912.45422363	2.90196085
912.45837402	3.01960778
912.45837402	2.80392146
912.46240234	2.66666675
912.46649170	2.70588231
912.47058105	2.84313726
912.47058105	2.70588231
912.47473145	2.58823538
912.47869873	2.49019599
912.48284912	2.70588231
912.48687744	2.84313726
912.48687744	2.92156863
912.49114990	2.86274505
912.49523926	2.72549009
912.49926758	2.70588231
912.49926758	2.82352948
912.50335693	2.82352948
912.50750732	2.70588231
912.51153564	2.60784316
912.51562500	2.54901958
912.51562500	2.72549009
912.51971436	2.66666675
912.52392578	2.60784316
912.52795410	2.68627453
912.52795410	2.68627453
912.53198242	2.50980401
912.53619385	2.47058821
912.54028320	2.58823538
912.54437256	2.64705873
912.54437256	2.68627453
912.54833984	2.52941179
912.55249023	2.01960778
912.55670166	1.76470590
912.55670166	1.41176474
912.56072998	1.11764705
912.56481934	0.92156863
912.56884766	0.94117647
912.57305908	0.80392158
912.57305908	0.56862748
912.57714844	0.52941179
912.58123779	0.43137255
912.58520508	0.54901963
912.58520508	0.64705884
912.58941650	0.70588237
912.59350586	0.74509805
912.59765625	0.64705884
912.60180664	0.66666669
912.60180664	0.74509805
912.60577393	0.80392158
912.60986328	0.94117647
912.61401367	1.00000000
912.61401367	1.17647064
912.61816406	1.11764705
912.62225342	1.11764705
912.62628174	1.11764705
912.63037109	1.29411769
912.63037109	1.23529410
912.63446045	1.19607842
912.63848877	1.35294116
912.64263916	1.43137252
912.64263916	1.45098042
912.64672852	1.58823526
912.65081787	1.52941179
912.65496826	1.43137252
912.65893555	1.54901958
912.66308594	1.60784316
912.66717529	1.74509799
912.67138672	1.80392158
912.67138672	1.66666663
912.67541504	1.56862748
912.67950439	1.62745094
912.68365479	1.80392158
912.68774414	1.92156863
912.69171143	1.80392158
912.69592285	1.68627453
912.70001221	1.70588231
912.70001221	1.78431368
912.70410156	1.78431368
912.70819092	1.94117641
912.71215820	1.94117641
912.71630859	1.76470590
912.72045898	1.84313726
912.72460938	1.98039210
912.72857666	2.03921580
912.72857666	1.96078432
912.73272705	1.88235295
912.73681641	1.88235295
912.74102783	2.03921580
912.74505615	2.09803915
912.74920654	2.09803915
912.75323486	2.00000000
912.75744629	1.98039210
912.75744629	2.00000000
912.76141357	2.00000000
912.76538086	2.00000000
912.76959229	2.00000000
912.77374268	1.98039210
912.77789307	1.92156863
912.78186035	2.05882359
912.78594971	2.09803915
912.78594971	2.07843137
912.79010010	2.13725495
912.79425049	2.05882359
912.79833984	1.98039210
912.80236816	2.19607854
912.80645752	2.15686274
912.81060791	2.15686274
912.81469727	2.09803915
912.81469727	2.00000000
912.81866455	2.07843137
912.82281494	2.21568632
912.82696533	2.21568632
912.82696533	2.05882359
912.83111572	1.90196073
912.83520508	1.84313726
912.83923340	1.82352936
912.84332275	1.90196073
912.84332275	1.90196073
912.84747314	1.86274505
912.85150146	1.96078432
912.85559082	1.96078432
912.85559082	1.96078432
912.85974121	1.90196073
912.86383057	1.88235295
912.86798096	1.86274505
912.87200928	1.88235295
912.87200928	1.88235295
912.87609863	1.84313726
912.88018799	1.86274505
912.88427734	1.90196073
912.88427734	2.01960778
912.88836670	1.94117641
912.89245605	1.90196073
912.89654541	1.88235295
912.90069580	1.90196073
912.90069580	1.98039210
912.90490723	2.13725495
912.90887451	2.11764717
912.91296387	2.09803915
912.91296387	2.00000000
912.91711426	1.92156863
912.92120361	1.98039210
912.92523193	2.07843137
912.92932129	2.07843137
912.92932129	2.07843137
912.93347168	2.07843137
912.93756104	2.03921580
912.94171143	2.03921580
912.94171143	2.21568632
912.94567871	2.17647052
912.94976807	2.13725495
912.95404053	2.17647052
912.95812988	2.19607854
912.95812988	2.15686274
912.96221924	2.23529410
912.96624756	2.33333325
912.97033691	2.27450991
912.97033691	2.21568632
912.97460938	2.37254906
912.97851563	2.33333325
912.98266602	2.35294127
912.98681641	2.43137264
912.98681641	2.56862736
912.99102783	2.43137264
912.99505615	2.37254906
912.99902344	2.33333325
912.99902344	2.35294127
913.00317383	2.49019599
913.00726318	2.45098042
913.01141357	2.49019599
913.01550293	2.52941179
913.01550293	2.45098042
913.01947021	2.45098042
913.02362061	2.52941179
913.02777100	2.49019599
913.02777100	2.50980401
913.03173828	2.49019599
913.03582764	2.50980401
913.03991699	2.45098042
913.04412842	2.49019599
913.04412842	2.60784316
913.04821777	2.66666675
913.05218506	2.56862736
913.05633545	2.49019599
913.05633545	2.47058821
913.06054688	2.52941179
913.06463623	2.62745094
913.06866455	2.64705873
913.07275391	2.50980401
913.07690430	2.47058821
913.08099365	2.58823538
913.08514404	2.64705873
913.08514404	2.70588231
913.08923340	2.68627453
913.09320068	2.58823538
913.09741211	2.47058821
913.10150146	2.70588231
913.10552979	2.70588231
913.10961914	2.70588231
913.11376953	2.58823538
913.11376953	2.54901958
913.11791992	2.66666675
913.12188721	2.70588231
913.12603760	2.74509811
913.13012695	2.70588231
913.13427734	2.62745094
913.13824463	2.60784316
913.14239502	2.64705873
913.14239502	2.74509811
913.14648438	2.66666675
913.15057373	2.68627453
913.15466309	2.64705873
913.15875244	2.62745094
913.16290283	2.66666675
913.16699219	2.72549009
913.17114258	2.70588231
913.17114258	2.58823538
913.17529297	2.56862736
913.17926025	2.54901958
913.18334961	2.66666675
913.18750000	2.72549009
913.19165039	2.62745094
913.19561768	2.58823538
913.19976807	2.58823538
913.19976807	2.60784316
913.20385742	2.68627453
913.20800781	2.72549009
913.21215820	2.68627453
913.21215820	2.62745094
913.21624756	2.64705873
913.22021484	2.66666675
913.22430420	2.72549009
913.22845459	2.70588231
913.22845459	2.62745094
913.23242188	2.56862736
913.23657227	2.56862736
913.24072266	2.50980401
913.24072266	2.56862736
913.24487305	2.70588231
913.24884033	2.72549009
913.25299072	2.58823538
913.25714111	2.52941179
913.25714111	2.49019599
913.26116943	2.56862736
913.26513672	2.66666675
913.26934814	2.68627453
913.26934814	2.60784316
913.27349854	2.52941179
913.27764893	2.47058821
913.28179932	2.49019599
913.28576660	2.68627453
913.28576660	2.74509811
913.28991699	2.60784316
913.29400635	2.49019599
913.29815674	2.52941179
913.29815674	2.54901958
913.30230713	2.64705873
913.30627441	2.80392146
913.31042480	2.70588231
913.31451416	2.58823538
913.31451416	2.50980401
913.31866455	2.56862736
913.32281494	2.64705873
913.32678223	2.78431368
913.32678223	2.74509811
913.33093262	2.56862736
913.33502197	2.52941179
913.33898926	2.56862736
913.34326172	2.58823538
913.34326172	2.70588231
913.34722900	2.78431368
913.35131836	2.58823538
913.35552979	2.50980401
913.35552979	2.52941179
913.35955811	2.60784316
913.36358643	2.70588231
913.36773682	2.72549009
913.37188721	2.72549009
913.37188721	2.56862736
913.37579346	2.60784316
913.37994385	2.68627453
913.38403320	2.74509811
913.38403320	2.80392146
913.38824463	2.72549009
913.39215088	2.56862736
913.39630127	2.52941179
913.40045166	2.56862736
913.40045166	2.72549009
913.40460205	2.66666675
913.40856934	2.66666675
913.41271973	2.68627453
913.41271973	2.62745094
913.41680908	2.60784316
913.42095947	2.70588231
913.42510986	2.66666675
913.42926025	2.66666675
913.42926025	2.68627453
913.43328857	2.60784316
913.43737793	2.60784316
913.44152832	2.62745094
913.44152832	2.66666675
913.44555664	2.70588231
913.44964600	2.70588231
913.45367432	2.68627453
913.45782471	2.56862736
913.46191406	2.60784316
913.46600342	2.72549009
913.47015381	2.76470590
913.47015381	2.66666675
913.47424316	2.62745094
913.47839355	2.68627453
913.48242188	2.66666675
913.48651123	2.76470590
913.49066162	2.84313726
913.49475098	2.72549009
913.49890137	2.52941179
913.49890137	2.66666675
913.50292969	2.76470590
913.50701904	2.78431368
913.51110840	2.70588231
913.51525879	2.64705873
913.51922607	2.62745094
913.52337646	2.68627453
913.52746582	2.82352948
913.52746582	2.82352948
913.53167725	2.74509811
913.53558350	2.58823538
913.53967285	2.60784316
913.54382324	2.78431368
913.54797363	2.80392146
913.55194092	2.66666675
913.55627441	2.58823538
913.55627441	2.58823538
913.56018066	2.60784316
913.56433105	2.72549009
913.56848145	2.82352948
913.57244873	2.60784316
913.57672119	2.60784316
913.58074951	2.64705873
913.58489990	2.70588231
913.58489990	2.74509811
913.58886719	2.76470590
913.59295654	2.60784316
913.59729004	2.58823538
913.59729004	2.68627453
913.60125732	2.64705873
913.60522461	2.70588231
913.60925293	2.72549009
913.61346436	2.68627453
913.61346436	2.60784316
913.61761475	2.58823538
913.62170410	2.64705873
913.62573242	2.68627453
913.62573242	2.72549009
913.62982178	2.70588231
913.63397217	2.62745094
913.63806152	2.66666675
913.64227295	2.66666675
913.64227295	2.70588231
913.64630127	2.82352948
913.65039063	2.78431368
913.65447998	2.70588231
913.65447998	2.68627453
913.65844727	2.66666675
913.66259766	2.58823538
913.66662598	2.66666675
913.67089844	2.88235283
913.67089844	2.98039222
913.67498779	2.82352948
913.67895508	2.64705873
913.68322754	2.62745094
913.68322754	2.70588231
913.68713379	2.92156863
913.69140625	2.66666675
913.69537354	2.33333325
913.69946289	2.41176462
913.69946289	2.54901958
913.70355225	2.64705873
913.70770264	2.68627453
913.71185303	2.66666675
913.71185303	2.56862736
913.71582031	2.49019599
913.71990967	2.49019599
913.72406006	2.52941179
913.72814941	2.64705873
913.72814941	2.64705873
913.73217773	2.45098042
913.73632813	2.43137264
913.74053955	2.72549009
913.74053955	2.98039222
913.74462891	2.78431368
913.74871826	2.50980401
913.75274658	2.43137264
913.75689697	2.41176462
913.75689697	2.58823538
913.76104736	2.90196085
913.76513672	2.86274505
913.76928711	2.60784316
913.76928711	2.43137264
913.77325439	2.29411769
913.77740479	2.27450991
913.78149414	2.43137264
913.78564453	2.66666675
913.78564453	2.90196085
913.78961182	2.84313726
913.79370117	2.76470590
913.79785156	2.84313726
913.79785156	3.01960778
913.80187988	3.13725495
913.80596924	3.33333325
913.80999756	3.58823538
913.81420898	3.84313726
913.81420898	3.96078420
913.81835938	4.15686274
913.82232666	4.43137264
913.82647705	4.68627453
913.82647705	4.94117641
913.83062744	4.98039198
913.83471680	4.98039198
913.83868408	4.98039198
913.84289551	4.98039198
913.84704590	4.98039198
913.85113525	4.98039198
913.85516357	4.88235283
913.85516357	4.76470566
913.85919189	4.72549009
913.86340332	4.78431368
913.86749268	4.80392170
913.87164307	4.74509811
913.87561035	4.82352924
913.87969971	4.68627453
913.88385010	4.82352924
913.88385010	4.78431368
913.88800049	4.68627453
913.89196777	4.62745094
913.89624023	4.35294104
913.90014648	4.31372547
913.90423584	4.39215708
913.90856934	4.33333349
913.91253662	4.17647076
913.91253662	4.13725471
913.91656494	3.94117641
913.92065430	3.78431368
913.92486572	3.80392146
913.92895508	3.74509811
913.93292236	3.54901958
913.93707275	3.37254906
913.94122314	3.49019599
913.94122314	3.50980401
913.94525146	3.37254906
913.94934082	3.31372547
913.95343018	3.27450991
913.95758057	3.09803915
913.96166992	2.98039222
913.96569824	2.92156863
913.96984863	2.86274505
913.96984863	2.80392146
913.97399902	2.80392146
913.97808838	2.68627453
913.98223877	2.52941179
913.98223877	2.49019599
913.98620605	2.64705873
913.99041748	2.62745094
913.99450684	2.54901958
913.99859619	2.45098042
913.99859619	2.41176462
914.00256348	2.37254906
914.00677490	2.41176462
914.01086426	2.50980401
914.01086426	2.58823538
914.01495361	2.47058821
914.01898193	2.29411769
914.02325439	2.29411769
914.02728271	2.37254906
914.02728271	2.50980401
914.03143311	2.50980401
914.03533936	2.45098042
914.03948975	2.33333325
914.03948975	2.19607854
914.04357910	2.17647052
914.04779053	2.27450991
914.05181885	2.35294127
914.05578613	2.45098042
914.05578613	2.35294127
914.05993652	2.29411769
914.06408691	2.29411769
914.06817627	2.33333325
914.06817627	2.39215684
914.07220459	2.41176462
914.07635498	2.49019599
914.08044434	2.45098042
914.08453369	2.50980401
914.08453369	2.52941179
914.08874512	2.56862736
914.09265137	2.58823538
914.09680176	2.62745094
914.09680176	2.68627453
914.10095215	2.80392146
914.10510254	2.80392146
914.10919189	2.80392146
914.11315918	2.76470590
914.11315918	2.64705873
914.11730957	2.74509811
914.12145996	2.86274505
914.12561035	2.82352948
914.12561035	2.88235283
914.12957764	2.84313726
914.13366699	2.74509811
914.13781738	2.76470590
914.14202881	2.76470590
914.14202881	2.84313726
914.14599609	2.88235283
914.15026855	2.88235283
914.15423584	2.90196085
914.15423584	2.80392146
914.15832520	2.76470590
914.16235352	2.80392146
914.16644287	2.88235283
914.17053223	2.98039222
914.17053223	2.98039222
914.17474365	2.92156863
914.17871094	2.82352948
914.18280029	2.76470590
914.18280029	2.84313726
914.18688965	2.88235283
914.19110107	2.94117641
914.19519043	2.86274505
914.19934082	2.82352948
914.19934082	2.78431368
914.20336914	2.84313726
914.20745850	2.94117641
914.21160889	2.94117641
914.21160889	2.86274505
914.21563721	2.76470590
914.21972656	2.80392146
914.22381592	2.82352948
914.22796631	2.82352948
914.22796631	2.90196085
914.23217773	2.86274505
914.23620605	2.82352948
914.24023438	2.80392146
914.24023438	2.84313726
914.24432373	2.84313726
914.24847412	2.86274505
914.25244141	2.82352948
914.25659180	2.80392146
914.26074219	2.82352948
914.26483154	2.80392146
914.26898193	2.76470590
914.26898193	2.76470590
914.27301025	2.70588231
914.27709961	2.72549009
914.28118896	2.76470590
914.28533936	2.86274505
914.28924561	2.90196085
914.29339600	2.72549009
914.29754639	2.76470590
914.29754639	2.72549009
914.30169678	2.74509811
914.30572510	2.80392146
914.30981445	2.90196085
914.31396484	2.84313726
914.31811523	2.78431368
914.32220459	2.72549009
914.32623291	2.80392146
914.32623291	2.86274505
914.33032227	2.88235283
914.33447266	2.84313726
914.33862305	2.80392146
914.34252930	2.94117641
914.34667969	2.96078420
914.35076904	2.94117641
914.35491943	2.86274505
914.35491943	2.88235283
914.35894775	2.92156863
914.36315918	3.00000000
914.36718750	3.05882359
914.36718750	3.07843137
914.37133789	3.07843137
914.37548828	2.92156863
914.37945557	3.00000000
914.38354492	2.96078420
914.38354492	3.17647052
914.38769531	3.17647052
914.39184570	3.13725495
914.39593506	3.07843137
914.39593506	3.11764717
914.39990234	3.09803915
914.40399170	3.15686274
914.40820313	3.19607854
914.41229248	3.11764717
914.41229248	3.11764717
914.41625977	3.09803915
914.42047119	3.07843137
914.42462158	3.11764717
914.42462158	3.13725495
914.42871094	3.19607854
914.43273926	3.13725495
914.43676758	3.07843137
914.44104004	3.15686274
914.44104004	3.11764717
914.44512939	3.19607854
914.44921875	3.25490189
914.45318604	3.27450991
914.45318604	3.09803915
914.45733643	3.15686274
914.46142578	3.27450991
914.46551514	3.31372547
914.46954346	3.35294127
914.46954346	3.33333325
914.47369385	3.31372547
914.47778320	3.29411769
914.48193359	3.23529410
914.48193359	3.27450991
914.48596191	3.41176462
914.49023438	3.39215684
914.49420166	3.21568632
914.49835205	3.29411769
914.49835205	3.33333325
914.50231934	3.35294127
914.50646973	3.41176462
914.51062012	3.43137264
914.51062012	3.39215684
914.51477051	3.27450991
914.51892090	3.31372547
914.52288818	3.39215684
914.52697754	3.47058821
914.52697754	3.49019599
914.53112793	3.49019599
914.53521729	3.49019599
914.53936768	3.50980401
914.53936768	3.50980401
914.54333496	3.64705873
914.54748535	3.70588231
914.55163574	3.72549009
914.55572510	3.64705873
914.55572510	3.56862736
914.55969238	3.62745094
914.56378174	3.66666675
914.56793213	3.76470590
914.56793213	3.74509811
914.57208252	3.64705873
914.57623291	3.66666675
914.58020020	3.66666675
914.58428955	3.62745094
914.58428955	3.64705873
914.58843994	3.68627453
914.59246826	3.60784316
914.59655762	3.58823538
914.59655762	3.49019599
914.60064697	3.50980401
914.60485840	3.47058821
914.60894775	3.54901958
914.61297607	3.52941179
914.61297607	3.45098042
914.61706543	3.45098042
914.62121582	3.35294127
914.62536621	3.39215684
914.62536621	3.47058821
914.62939453	3.50980401
914.63354492	3.47058821
914.63757324	3.41176462
914.64178467	3.35294127
914.64575195	3.35294127
914.64984131	3.43137264
914.65393066	3.33333325
914.65393066	3.29411769
914.65802002	3.29411769
914.66223145	3.31372547
914.66619873	3.33333325
914.67041016	3.27450991
914.67449951	3.15686274
914.67858887	3.15686274
914.68267822	3.15686274
914.68267822	3.27450991
914.68664551	3.21568632
914.69079590	3.25490189
914.69488525	3.09803915
914.69903564	3.11764717
914.70312500	3.19607854
914.70721436	3.23529410
914.71130371	3.17647052
914.71130371	3.03921580
914.71545410	2.96078420
914.71936035	3.07843137
914.72357178	3.21568632
914.72766113	3.09803915
914.73181152	3.00000000
914.73577881	2.86274505
914.73992920	3.05882359
914.73992920	3.09803915
914.74401855	3.11764717
914.74810791	2.98039222
914.75225830	2.88235283
914.75628662	3.07843137
914.76043701	3.00000000
914.76458740	2.96078420
914.76867676	3.03921580
914.76867676	3.13725495
914.77264404	3.00000000
914.77679443	2.92156863
914.78088379	3.00000000
914.78088379	3.00000000
914.78503418	2.98039222
914.78912354	3.03921580
914.79315186	2.96078420
914.79730225	2.86274505
914.79730225	2.82352948
914.80145264	2.84313726
914.80541992	2.92156863
914.80957031	2.96078420
914.80957031	2.88235283
914.81365967	2.82352948
914.81781006	2.82352948
914.82196045	2.84313726
914.82604980	2.90196085
914.82604980	2.86274505
914.83020020	2.90196085
914.83416748	2.76470590
914.83831787	2.82352948
914.83831787	2.78431368
914.84240723	2.86274505
914.84649658	2.84313726
914.85064697	2.84313726
914.85467529	2.78431368
914.85467529	2.70588231
914.85876465	2.56862736
914.86279297	2.72549009
914.86688232	2.84313726
914.86688232	2.80392146
914.87109375	2.74509811
914.87518311	2.68627453
914.87921143	2.58823538
914.88330078	2.66666675
914.88330078	2.82352948
914.88739014	2.86274505
914.89160156	2.70588231
914.89562988	2.60784316
914.89562988	2.66666675
914.89965820	2.78431368
914.90374756	2.82352948
914.90795898	2.78431368
914.91198730	2.76470590
914.91198730	2.74509811
914.91613770	2.78431368
914.92010498	2.64705873
914.92431641	2.56862736
914.92431641	2.76470590
914.92834473	2.80392146
914.93243408	2.76470590
914.93652344	2.74509811
914.94073486	2.66666675
914.94073486	2.66666675
914.94482422	2.70588231
914.94897461	2.82352948
914.95294189	2.90196085
914.95294189	2.74509811
914.95721436	2.64705873
914.96124268	2.62745094
914.96539307	2.68627453
914.96948242	2.74509811
914.96948242	2.80392146
914.97351074	2.76470590
914.97760010	2.68627453
914.98175049	2.56862736
914.98175049	2.64705873
914.98571777	2.76470590
914.98986816	2.74509811
914.99395752	2.68627453
914.99804688	2.64705873
915.00225830	2.60784316
915.00628662	2.66666675
915.01031494	2.76470590
915.01031494	2.78431368
915.01446533	2.68627453
915.01861572	2.64705873
915.02264404	2.58823538
915.02673340	2.70588231
915.03088379	2.72549009
915.03497314	2.76470590
915.03912354	2.72549009
915.03912354	2.68627453
915.04339600	2.62745094
915.04724121	2.62745094
915.05139160	2.66666675
915.05548096	2.66666675
915.05944824	2.68627453
915.06359863	2.72549009
915.06774902	2.76470590
915.06774902	2.74509811
915.07183838	2.60784316
915.07580566	2.56862736
915.08001709	2.62745094
915.08410645	2.74509811
915.08819580	2.78431368
915.09234619	2.66666675
915.09637451	2.49019599
915.09637451	2.58823538
915.10046387	2.64705873
915.10455322	2.72549009
915.10864258	2.72549009
915.11267090	2.68627453
915.11676025	2.64705873
915.12097168	2.62745094
915.12506104	2.64705873
915.12506104	2.68627453
915.12921143	2.72549009
915.13317871	2.68627453
915.13726807	2.58823538
915.13726807	2.62745094
915.14147949	2.62745094
915.14556885	2.62745094
915.14959717	2.68627453
915.15362549	2.56862736
915.15362549	2.56862736
915.15777588	2.56862736
915.16192627	2.60784316
915.16613770	2.66666675
915.16613770	2.62745094
915.17028809	2.54901958
915.17419434	2.62745094
915.17834473	2.62745094
915.18249512	2.68627453
915.18249512	2.74509811
915.18646240	2.64705873
915.19061279	2.72549009
915.19470215	2.66666675
915.19470215	2.68627453
915.19885254	2.60784316
915.20281982	2.68627453
915.20697021	2.70588231
915.21118164	2.76470590
915.21118164	2.72549009
915.21520996	2.60784316
915.21917725	2.60784316
915.22332764	2.62745094
915.22332764	2.70588231
915.22741699	2.72549009
915.23162842	2.66666675
915.23577881	2.56862736
915.23974609	2.50980401
915.23974609	2.52941179
915.24383545	2.52941179
915.24798584	2.64705873
915.25213623	2.64705873
915.25213623	2.58823538
915.25622559	2.56862736
915.26013184	2.56862736
915.26428223	2.64705873
915.26843262	2.68627453
915.26843262	2.68627453
915.27246094	2.62745094
915.27655029	2.58823538
915.28070068	2.60784316
915.28070068	2.66666675
915.28485107	2.70588231
915.28900146	2.72549009
915.29296875	2.66666675
915.29718018	2.66666675
915.29718018	2.52941179
915.30120850	2.60784316
915.30541992	2.64705873
915.30944824	2.74509811
915.30944824	2.70588231
915.31341553	2.60784316
915.31762695	2.56862736
915.32177734	2.56862736
915.32586670	2.64705873
915.32586670	2.76470590
915.32989502	2.74509811
915.33398438	2.62745094
915.33807373	2.60784316
915.33807373	2.62745094
915.34228516	2.66666675
915.34625244	2.68627453
915.35040283	2.66666675
915.35449219	2.62745094
915.35449219	2.64705873
915.35858154	2.64705873
915.36254883	2.64705873
915.36676025	2.66666675
915.36676025	2.66666675
915.37084961	2.64705873
915.37493896	2.62745094
915.37908936	2.58823538
915.38317871	2.60784316
915.38720703	2.68627453
915.39135742	2.60784316
915.39544678	2.54901958
915.39544678	2.52941179
915.39947510	2.54901958
915.40350342	2.62745094
915.40771484	2.64705873
915.41180420	2.54901958
915.41583252	2.49019599
915.41998291	2.49019599
915.42419434	2.56862736
915.42419434	2.64705873
915.42822266	2.60784316
915.43231201	2.52941179
915.43640137	2.56862736
915.44049072	2.52941179
915.44458008	2.47058821
915.44866943	2.58823538
915.45294189	2.60784316
915.45294189	2.54901958
915.45690918	2.43137264
915.46099854	2.49019599
915.46508789	2.52941179
915.46923828	2.56862736
915.47326660	2.56862736
915.47735596	2.49019599
915.48150635	2.45098042
915.48150635	2.54901958
915.48559570	2.62745094
915.48962402	2.64705873
915.49371338	2.54901958
915.49780273	2.50980401
915.50195313	2.52941179
915.50598145	2.58823538
915.51019287	2.58823538
915.51019287	2.56862736
915.51416016	2.52941179
915.51837158	2.52941179
915.52246094	2.54901958
915.52648926	2.60784316
915.53063965	2.60784316
915.53479004	2.52941179
915.53881836	2.52941179
915.53881836	2.56862736
915.54284668	2.56862736
915.54699707	2.60784316
915.55126953	2.50980401
915.55126953	2.58823538
915.55523682	2.56862736
915.55932617	2.54901958
915.56329346	2.56862736
915.56750488	2.64705873
915.56750488	2.64705873
915.57159424	2.62745094
915.57568359	2.56862736
915.57983398	2.52941179
915.57983398	2.56862736
915.58392334	2.60784316
915.58801270	2.60784316
915.59216309	2.60784316
915.59625244	2.50980401
915.59625244	2.50980401
915.60021973	2.58823538
915.60449219	2.54901958
915.60845947	2.62745094
915.60845947	2.49019599
915.61254883	2.54901958
915.61657715	2.50980401
915.62072754	2.54901958
915.62481689	2.56862736
915.62481689	2.58823538
915.62890625	2.60784316
915.63299561	2.60784316
915.63720703	2.50980401
915.63720703	2.49019599
915.64129639	2.50980401
915.64538574	2.52941179
915.64947510	2.62745094
915.65350342	2.56862736
915.65350342	2.47058821
915.65765381	2.45098042
915.66174316	2.47058821
915.66583252	2.52941179
915.66583252	2.58823538
915.66986084	2.56862736
915.67395020	2.50980401
915.67803955	2.49019599
915.68225098	2.45098042
915.68225098	2.45098042
915.68621826	2.54901958
915.69036865	2.56862736
915.69445801	2.54901958
915.69445801	2.43137264
915.69860840	2.41176462
915.70269775	2.52941179
915.70678711	2.60784316
915.71087646	2.60784316
915.71087646	2.54901958
915.71502686	2.54901958
915.71911621	2.45098042
915.72326660	2.45098042
915.72326660	2.60784316
915.72723389	2.62745094
915.73138428	2.62745094
915.73553467	2.49019599
915.73962402	2.49019599
915.73962402	2.47058821
915.74359131	2.52941179
915.74768066	2.64705873
915.75189209	2.60784316
915.75189209	2.50980401
915.75598145	2.45098042
915.75994873	2.49019599
915.76416016	2.56862736
915.76818848	2.54901958
915.77233887	2.50980401
915.77630615	2.45098042
915.78039551	2.49019599
915.78039551	2.43137264
915.78454590	2.52941179
915.78869629	2.56862736
915.79272461	2.49019599
915.79681396	2.52941179
915.80090332	2.47058821
915.80505371	2.50980401
915.80920410	2.45098042
915.80920410	2.52941179
915.81317139	2.52941179
915.81732178	2.37254906
915.82147217	2.39215684
915.82556152	2.52941179
915.82958984	2.50980401
915.83374023	2.58823538
915.83795166	2.52941179
915.83795166	2.47058821
915.84204102	2.43137264
915.84600830	2.58823538
915.85028076	2.66666675
915.85430908	2.35294127
915.85833740	2.43137264
915.86242676	2.52941179
915.86657715	2.54901958
915.86657715	2.45098042
915.87060547	2.41176462
915.87469482	2.52941179
915.87878418	2.56862736
915.88293457	2.39215684
915.88690186	2.43137264
915.89111328	2.60784316
915.89520264	2.58823538
915.89520264	2.43137264
915.89929199	2.47058821
915.90332031	2.37254906
915.90740967	2.45098042
915.91156006	2.62745094
915.91571045	2.45098042
915.91973877	2.27450991
915.92388916	2.25490189
915.92388916	2.52941179
915.92791748	2.58823538
915.93206787	2.52941179
915.93621826	2.47058821
915.93621826	2.41176462
915.94024658	2.33333325
915.94433594	2.41176462
915.94842529	2.56862736
915.95257568	2.62745094
915.95257568	2.50980401
915.95660400	2.39215684
915.96069336	2.41176462
915.96478271	2.43137264
915.96478271	2.47058821
915.96893311	2.49019599
915.97296143	2.50980401
915.97717285	2.41176462
915.98120117	2.39215684
915.98120117	2.43137264
915.98535156	2.45098042
915.98950195	2.45098042
915.99346924	2.37254906
915.99346924	2.39215684
915.99755859	2.41176462
916.00170898	2.56862736
916.00585938	2.58823538
916.00994873	2.50980401
916.00994873	2.39215684
916.01391602	2.37254906
916.01812744	2.47058821
916.02227783	2.56862736
916.02227783	2.64705873
916.02624512	2.49019599
916.03033447	2.43137264
916.03448486	2.37254906
916.03857422	2.45098042
916.03857422	2.54901958
916.04278564	2.58823538
916.04675293	2.52941179
916.05084229	2.43137264
916.05084229	2.45098042
916.05505371	2.45098042
916.05914307	2.45098042
916.06317139	2.39215684
916.06719971	2.39215684
916.06719971	2.45098042
916.07135010	2.47058821
916.07543945	2.41176462
916.07952881	2.33333325
916.07952881	2.33333325
916.08361816	2.39215684
916.08776855	2.47058821
916.09185791	2.49019599
916.09600830	2.50980401
916.09600830	2.43137264
916.09997559	2.37254906
916.10418701	2.41176462
916.10827637	2.45098042
916.10827637	2.50980401
916.11236572	2.52941179
916.11633301	2.43137264
916.12054443	2.33333325
916.12457275	2.39215684
916.12457275	2.49019599
916.12866211	2.52941179
916.13281250	2.52941179
916.13690186	2.50980401
916.13690186	2.50980401
916.14099121	2.49019599
916.14508057	2.52941179
916.14916992	2.58823538
916.15338135	2.58823538
916.15338135	2.52941179
916.15740967	2.47058821
916.16149902	2.45098042
916.16558838	2.52941179
916.16558838	2.60784316
916.16961670	2.62745094
916.17376709	2.56862736
916.17785645	2.54901958
916.18200684	2.49019599
916.18609619	2.49019599
916.19024658	2.64705873
916.19421387	2.58823538
916.19421387	2.43137264
916.19830322	2.49019599
916.20245361	2.50980401
916.20648193	2.54901958
916.21057129	2.72549009
916.21472168	2.54901958
916.21875000	2.52941179
916.22296143	2.50980401
916.22296143	2.58823538
916.22692871	2.66666675
916.23101807	2.62745094
916.23516846	2.52941179
916.23925781	2.50980401
916.24328613	2.41176462
916.24749756	2.64705873
916.25158691	2.68627453
916.25158691	2.54901958
916.25573730	2.52941179
916.25970459	2.52941179
916.26379395	2.56862736
916.26794434	2.64705873
916.27203369	2.56862736
916.27618408	2.47058821
916.28015137	2.54901958
916.28015137	2.56862736
916.28430176	2.60784316
916.28845215	2.60784316
916.29254150	2.60784316
916.29254150	2.56862736
916.29656982	2.56862736
916.30065918	2.64705873
916.30487061	2.62745094
916.30889893	2.66666675
916.30889893	2.68627453
916.31292725	2.58823538
916.31713867	2.56862736
916.32122803	2.58823538
916.32122803	2.60784316
916.32531738	2.68627453
916.32946777	2.68627453
916.33343506	2.72549009
916.33752441	2.64705873
916.33752441	2.60784316
916.34167480	2.60784316
916.34582520	2.62745094
916.34991455	2.70588231
916.34991455	2.70588231
916.35388184	2.62745094
916.35809326	2.60784316
916.36248779	2.64705873
916.36633301	2.68627453
916.36633301	2.72549009
916.37036133	2.66666675
916.37445068	2.56862736
916.37854004	2.56862736
916.37854004	2.52941179
916.38269043	2.56862736
916.38677979	2.80392146
916.39080811	2.72549009
916.39495850	2.50980401
916.39495850	2.50980401
916.39910889	2.58823538
916.40319824	2.62745094
916.40722656	2.60784316
916.40722656	2.66666675
916.41131592	2.62745094
916.41546631	2.60784316
916.41955566	2.54901958
916.42358398	2.60784316
916.42358398	2.66666675
916.42767334	2.66666675
916.43188477	2.62745094
916.43597412	2.52941179
916.43597412	2.47058821
916.44000244	2.49019599
916.44421387	2.58823538
916.44818115	2.70588231
916.45233154	2.74509811
916.45233154	2.60784316
916.45635986	2.52941179
916.46044922	2.54901958
916.46447754	2.58823538
916.46447754	2.58823538
916.46868896	2.66666675
916.47283936	2.64705873
916.47680664	2.58823538
916.48089600	2.58823538
916.48089600	2.66666675
916.48510742	2.76470590
916.48925781	2.74509811
916.49334717	2.68627453
916.49334717	2.64705873
916.49731445	2.62745094
916.50140381	2.54901958
916.50561523	2.62745094
916.50970459	2.70588231
916.50970459	2.62745094
916.51367188	2.58823538
916.51782227	2.56862736
916.52197266	2.64705873
916.52197266	2.80392146
916.52612305	2.84313726
916.53027344	2.76470590
916.53424072	2.80392146
916.53833008	3.19607854
916.54248047	3.17647052
916.54650879	2.96078420
916.55059814	2.72549009
916.55059814	2.80392146
916.55480957	2.78431368
916.55883789	2.88235283
916.56292725	3.01960778
916.56695557	3.25490189
916.57116699	3.11764717
916.57513428	2.72549009
916.57934570	2.62745094
916.57934570	2.80392146
916.58331299	3.05882359
916.58746338	3.15686274
916.59155273	3.01960778
916.59564209	3.09803915
916.59967041	3.00000000
916.60388184	2.70588231
916.60803223	2.64705873
916.60803223	2.50980401
916.61212158	2.64705873
916.61639404	3.03921580
916.62017822	2.92156863
916.62432861	2.41176462
916.62847900	2.50980401
916.63256836	2.50980401
916.63684082	2.29411769
916.63684082	2.33333325
916.64074707	2.31372547
916.64477539	2.50980401
916.64892578	2.90196085
916.65307617	3.01960778
916.65728760	2.98039222
916.66125488	2.70588231
916.66534424	2.56862736
916.66534424	2.52941179
916.66949463	2.72549009
916.67352295	2.80392146
916.67761230	2.72549009
916.68170166	2.66666675
916.68585205	2.68627453
916.68981934	2.80392146
916.69396973	2.84313726
916.69396973	2.82352948
916.69805908	2.70588231
916.70214844	2.58823538
916.70635986	2.64705873
916.70635986	2.78431368
916.71032715	2.92156863
916.71441650	3.03921580
916.71856689	2.92156863
916.72271729	2.60784316
916.72271729	2.62745094
916.72674561	2.74509811
916.73083496	2.80392146
916.73498535	2.78431368
916.73498535	2.64705873
916.73907471	2.60784316
916.74322510	2.82352948
916.74725342	3.00000000
916.75134277	2.92156863
916.75134277	2.86274505
916.75549316	2.72549009
916.75952148	2.58823538
916.76348877	2.62745094
916.76348877	2.90196085
916.76770020	2.86274505
916.77185059	2.78431368
916.77593994	2.66666675
916.77996826	2.70588231
916.77996826	2.64705873
916.78417969	2.52941179
916.78820801	2.66666675
916.79229736	2.68627453
916.79229736	2.58823538
916.79638672	2.45098042
916.80041504	2.49019599
916.80456543	2.58823538
916.80859375	2.72549009
916.80859375	2.80392146
916.81274414	2.56862736
916.81677246	2.49019599
916.82110596	2.45098042
916.82110596	2.58823538
916.82501221	2.78431368
916.82916260	2.82352948
916.83319092	2.72549009
916.83728027	2.49019599
916.83728027	2.47058821
916.84143066	2.43137264
916.84558105	2.54901958
916.84973145	2.84313726
916.84973145	2.84313726
916.85369873	2.58823538
916.85784912	2.39215684
916.86199951	2.52941179
916.86608887	2.60784316
916.86608887	2.62745094
916.87017822	2.49019599
916.87414551	2.50980401
916.87823486	2.41176462
916.87823486	2.43137264
916.88244629	2.52941179
916.88647461	2.62745094
916.89056396	2.64705873
916.89459229	2.64705873
916.89459229	2.37254906
916.89886475	2.50980401
916.90295410	2.68627453
916.90698242	2.72549009
916.90698242	2.62745094
916.91119385	2.49019599
916.91516113	2.27450991
916.91931152	2.21568632
916.92346191	2.33333325
916.92346191	2.52941179
916.92742920	2.50980401
916.93151855	2.50980401
916.93572998	2.39215684
916.93572998	2.43137264
916.93988037	2.39215684
916.94372559	2.45098042
916.94787598	2.54901958
916.95202637	2.49019599
916.95623779	2.41176462
916.96020508	2.31372547
916.96417236	2.39215684
916.96417236	2.45098042
916.96844482	2.50980401
916.97259521	2.37254906
916.97668457	2.27450991
916.98065186	2.45098042
916.98480225	2.54901958
916.98889160	2.54901958
916.99298096	2.47058821
916.99298096	2.47058821
916.99707031	2.33333325
917.00115967	2.31372547
917.00524902	2.52941179
917.00939941	2.54901958
917.01342773	2.50980401
917.01757813	2.25490189
917.02172852	2.27450991
917.02172852	2.45098042
917.02581787	2.50980401
917.02990723	2.47058821
917.03393555	2.52941179
917.03808594	2.35294127
917.04217529	2.35294127
917.04632568	2.54901958
917.05035400	2.58823538
917.05035400	2.45098042
917.05444336	2.23529410
917.05853271	2.21568632
917.06262207	2.45098042
917.06665039	2.43137264
917.07086182	2.35294127
917.07495117	2.41176462
917.07897949	2.45098042
917.07897949	2.37254906
917.08319092	2.35294127
917.08721924	2.41176462
917.09130859	2.52941179
917.09130859	2.49019599
917.09539795	2.43137264
917.09954834	2.35294127
917.10351563	2.25490189
917.10766602	2.39215684
917.10766602	2.52941179
917.11175537	2.62745094
917.11590576	2.47058821
917.12005615	2.29411769
917.12005615	2.23529410
917.12426758	2.31372547
917.12817383	2.43137264
917.13220215	2.58823538
917.13641357	2.43137264
917.13641357	2.31372547
917.14050293	2.27450991
917.14453125	2.29411769
917.14862061	2.49019599
917.14862061	2.54901958
917.15277100	2.52941179
917.15679932	2.35294127
917.16088867	2.25490189
917.16503906	2.23529410
917.16503906	2.35294127
917.16918945	2.52941179
917.17321777	2.50980401
917.17730713	2.41176462
917.17730713	2.43137264
917.18139648	2.31372547
917.18554688	2.27450991
917.18963623	2.33333325
917.19372559	2.45098042
917.19372559	2.52941179
917.19769287	2.52941179
917.20190430	2.41176462
917.20599365	2.29411769
917.20599365	2.33333325
917.21014404	2.37254906
917.21417236	2.33333325
917.21820068	2.31372547
917.22241211	2.35294127
917.22241211	2.37254906
917.22656250	2.52941179
917.23052979	2.43137264
917.23468018	2.37254906
917.23468018	2.21568632
917.23883057	2.31372547
917.24298096	2.33333325
917.24694824	2.39215684
917.25122070	2.43137264
917.25122070	2.39215684
917.25524902	2.23529410
917.25927734	2.29411769
917.26336670	2.25490189
917.26336670	2.37254906
917.26733398	2.45098042
917.27160645	2.47058821
917.27569580	2.35294127
917.27978516	2.31372547
917.27978516	2.29411769
917.28369141	2.33333325
917.28802490	2.45098042
917.29211426	2.35294127
917.29211426	2.39215684
917.29626465	2.33333325
917.30023193	2.31372547
917.30438232	2.37254906
917.30853271	2.49019599
917.30853271	2.45098042
917.31262207	2.43137264
917.31671143	2.33333325
917.32073975	2.29411769
917.32073975	2.27450991
917.32482910	2.41176462
917.32885742	2.58823538
917.33294678	2.49019599
917.33715820	2.29411769
917.34124756	2.37254906
917.34527588	2.25490189
917.34936523	2.45098042
917.34936523	2.54901958
917.35345459	2.52941179
917.35754395	2.29411769
917.36169434	2.39215684
917.36578369	2.52941179
917.36981201	2.49019599
917.37390137	2.47058821
917.37817383	2.33333325
917.37817383	2.31372547
917.38214111	2.35294127
917.38629150	2.47058821
917.39038086	2.56862736
917.39447021	2.35294127
917.39849854	2.37254906
917.40264893	2.37254906
917.40679932	2.50980401
917.40679932	2.68627453
917.41082764	2.60784316
917.41491699	2.54901958
917.41906738	2.66666675
917.42327881	3.03921580
917.42718506	2.39215684
917.43133545	2.54901958
917.43548584	2.45098042
917.43548584	2.35294127
917.43969727	2.35294127
917.44360352	2.43137264
917.44769287	2.60784316
917.45184326	2.88235283
917.45599365	2.66666675
917.45989990	2.52941179
917.46411133	2.35294127
917.46411133	2.50980401
917.46813965	2.70588231
917.47229004	2.94117641
917.47631836	3.03921580
917.47631836	2.92156863
917.48040771	2.72549009
917.48455811	2.70588231
917.48870850	2.62745094
917.49279785	2.56862736
917.49279785	2.49019599
917.49676514	2.45098042
917.50091553	2.60784316
917.50518799	2.84313726
917.50518799	2.80392146
917.50909424	2.68627453
917.51318359	2.74509811
917.51727295	2.86274505
917.52136230	2.88235283
917.52136230	2.90196085
917.52557373	2.80392146
917.52966309	2.62745094
917.53381348	2.47058821
917.53381348	2.41176462
917.53778076	2.47058821
917.54193115	2.58823538
917.54602051	2.68627453
917.55010986	2.62745094
917.55010986	2.54901958
917.55419922	2.50980401
917.55828857	2.52941179
917.56237793	2.62745094
917.56237793	2.66666675
917.56658936	2.66666675
917.57061768	2.58823538
917.57470703	2.50980401
917.57873535	2.52941179
917.57873535	2.60784316
917.58288574	2.58823538
917.58691406	2.60784316
917.59118652	2.50980401
917.59118652	2.49019599
917.59509277	2.56862736
917.59930420	2.60784316
917.60339355	2.60784316
917.60748291	2.52941179
917.60748291	2.47058821
917.61151123	2.43137264
917.61566162	2.49019599
917.61987305	2.56862736
917.61987305	2.56862736
917.62384033	2.54901958
917.62799072	2.60784316
917.63208008	2.56862736
917.63623047	2.52941179
917.63623047	2.47058821
917.64019775	2.50980401
917.64428711	2.54901958
917.64837646	2.54901958
917.64837646	2.54901958
917.65246582	2.54901958
917.65673828	2.54901958
917.66064453	2.54901958
917.66473389	2.43137264
917.66473389	2.43137264
917.66888428	2.58823538
917.67309570	2.66666675
917.67718506	2.78431368
917.67718506	2.74509811
917.68121338	2.54901958
917.68536377	2.33333325
917.68945313	2.17647052
917.69360352	1.92156863
917.69757080	2.05882359
917.70166016	2.15686274
917.70574951	2.31372547
917.70574951	2.29411769
917.70996094	2.33333325
917.71392822	2.17647052
917.71813965	2.19607854
917.72216797	2.43137264
917.72631836	2.43137264
917.73034668	2.45098042
917.73443604	2.33333325
917.73443604	2.31372547
917.73858643	2.37254906
917.74273682	2.50980401
917.74682617	2.41176462
917.75097656	2.49019599
917.75494385	2.56862736
917.75909424	2.37254906
917.76312256	2.25490189
917.76312256	2.45098042
917.76715088	2.64705873
917.77136230	2.39215684
917.77532959	2.23529410
917.77947998	2.45098042
917.78350830	2.45098042
917.78765869	2.41176462
917.79180908	2.37254906
917.79180908	2.37254906
917.79589844	2.45098042
917.80004883	2.35294127
917.80407715	2.09803915
917.80816650	2.35294127
917.81231689	2.52941179
917.81640625	2.52941179
917.82049561	2.39215684
917.82049561	2.27450991
917.82446289	2.45098042
917.82855225	2.56862736
917.83276367	2.49019599
917.83666992	2.37254906
917.84094238	2.35294127
917.84503174	2.29411769
917.84918213	2.45098042
917.84918213	2.64705873
917.85333252	2.47058821
917.85729980	2.23529410
917.86138916	2.29411769
917.86138916	2.43137264
917.86553955	2.54901958
917.86975098	2.64705873
917.87371826	2.56862736
917.87786865	2.56862736
917.87786865	2.47058821
917.88195801	2.43137264
917.88610840	2.45098042
917.89019775	2.64705873
917.89019775	2.60784316
917.89416504	2.52941179
917.89831543	2.45098042
917.90234375	2.43137264
917.90655518	2.31372547
917.90655518	2.37254906
917.91064453	2.52941179
917.91467285	2.37254906
917.91876221	2.31372547
917.91876221	2.41176462
917.92291260	2.33333325
917.92687988	2.21568632
917.93115234	2.31372547
917.93511963	2.39215684
917.93511963	2.39215684
917.93927002	2.47058821
917.94342041	2.54901958
917.94738770	2.58823538
917.94738770	2.47058821
917.95159912	2.31372547
917.95574951	2.45098042
917.95977783	2.43137264
917.96386719	2.58823538
917.96386719	2.45098042
917.96789551	2.45098042
917.97210693	2.50980401
917.97619629	2.29411769
917.97619629	2.21568632
917.98010254	2.33333325
917.98419189	2.60784316
917.98846436	2.52941179
917.99261475	2.39215684
917.99261475	2.43137264
917.99670410	2.23529410
918.00073242	2.31372547
918.00476074	2.47058821
918.00476074	2.66666675
918.00891113	2.70588231
918.01300049	2.54901958
918.01708984	2.49019599
918.02111816	2.49019599
918.02111816	2.50980401
918.02532959	2.49019599
918.02947998	2.49019599
918.03350830	2.45098042
918.03350830	2.43137264
918.03747559	2.45098042
918.04168701	2.47058821
918.04583740	2.35294127
918.04998779	2.43137264
918.04998779	2.60784316
918.05395508	2.68627453
918.05822754	2.54901958
918.06225586	2.29411769
918.06225586	2.33333325
918.06634521	2.47058821
918.07031250	2.52941179
918.07452393	2.37254906
918.07855225	2.45098042
918.07855225	2.41176462
918.08258057	2.52941179
918.08685303	2.56862736
918.09082031	2.49019599
918.09082031	2.41176462
918.09490967	2.29411769
918.09906006	2.43137264
918.10321045	2.54901958
918.10736084	2.54901958
918.11126709	2.47058821
918.11541748	2.47058821
918.11950684	2.45098042
918.11950684	2.43137264
918.12353516	2.58823538
918.12762451	2.70588231
918.13177490	2.56862736
918.13592529	2.45098042
918.14007568	2.60784316
918.14416504	2.56862736
918.14813232	2.49019599
918.14813232	2.47058821
918.15228271	2.45098042
918.15649414	2.56862736
918.16052246	2.52941179
918.16455078	2.52941179
918.16857910	2.62745094
918.17279053	2.56862736
918.17694092	2.58823538
918.17694092	2.50980401
918.18084717	2.43137264
918.18511963	2.47058821
918.18920898	2.43137264
918.19323730	2.29411769
918.19720459	2.29411769
918.20135498	2.29411769
918.20556641	2.47058821
918.20556641	2.49019599
918.20959473	2.58823538
918.21362305	2.54901958
918.21777344	2.45098042
918.22192383	2.54901958
918.22601318	2.58823538
918.23016357	2.47058821
918.23419189	2.43137264
918.23419189	2.43137264
918.23828125	2.43137264
918.24243164	2.45098042
918.24652100	2.50980401
918.24652100	2.49019599
918.25054932	2.41176462
918.25469971	2.29411769
918.25878906	2.33333325
918.26287842	2.56862736
918.26287842	2.56862736
918.26684570	2.47058821
918.27117920	2.45098042
918.27520752	2.47058821
918.27520752	2.49019599
918.27923584	2.45098042
918.28332520	2.35294127
918.28753662	2.47058821
918.29150391	2.62745094
918.29150391	2.56862736
918.29565430	2.47058821
918.29980469	2.31372547
918.30389404	2.27450991
918.30389404	2.35294127
918.30792236	2.37254906
918.31207275	2.39215684
918.31616211	2.31372547
918.32025146	2.23529410
918.32025146	2.31372547
918.32434082	2.17647052
918.32843018	2.31372547
918.33245850	2.37254906
918.33245850	2.25490189
918.33660889	2.15686274
918.34057617	2.00000000
918.34484863	2.05882359
918.34887695	2.23529410
918.34887695	2.52941179
918.35296631	2.52941179
918.35723877	2.37254906
918.36120605	2.39215684
918.36120605	2.50980401
918.36535645	2.54901958
918.36950684	2.60784316
918.37365723	2.62745094
918.37762451	2.60784316
918.37762451	2.49019599
918.38171387	2.49019599
918.38586426	2.54901958
918.38995361	2.58823538
918.38995361	2.64705873
918.39398193	2.58823538
918.39819336	2.62745094
918.40209961	2.60784316
918.40625000	2.50980401
918.40625000	2.50980401
918.41027832	2.50980401
918.41442871	2.45098042
918.41851807	2.39215684
918.41851807	2.39215684
918.42260742	2.37254906
918.42675781	2.41176462
918.43072510	2.49019599
918.43493652	2.45098042
918.43493652	2.47058821
918.43908691	2.27450991
918.44317627	2.45098042
918.44732666	2.56862736
918.44732666	2.45098042
918.45129395	2.52941179
918.45538330	2.43137264
918.45947266	2.37254906
918.46356201	2.45098042
918.46356201	2.52941179
918.46759033	2.52941179
918.47174072	2.52941179
918.47589111	2.60784316
918.47589111	2.50980401
918.48004150	2.45098042
918.48419189	2.52941179
918.48815918	2.60784316
918.49230957	2.37254906
918.49639893	2.27450991
918.50042725	2.43137264
918.50451660	2.50980401
918.50451660	2.52941179
918.50866699	2.45098042
918.51281738	2.47058821
918.51690674	2.54901958
918.52087402	2.35294127
918.52520752	2.39215684
918.52917480	2.49019599
918.53320313	2.54901958
918.53320313	2.50980401
918.53729248	2.43137264
918.54138184	2.35294127
918.54559326	2.27450991
918.54962158	2.41176462
918.55377197	2.43137264
918.55773926	2.33333325
918.56188965	2.21568632
918.56188965	2.27450991
918.56604004	2.37254906
918.57012939	2.50980401
918.57421875	2.47058821
918.57824707	2.17647052
918.58239746	2.15686274
918.58654785	2.29411769
918.59088135	2.43137264
918.59088135	2.39215684
918.59466553	2.35294127
918.59881592	2.25490189
918.60284424	2.23529410
918.60699463	2.29411769
918.61108398	2.37254906
918.61523438	2.21568632
918.61926270	2.07843137
918.61926270	2.00000000
918.62335205	1.94117641
918.62738037	1.96078432
918.63153076	2.09803915
918.63153076	1.98039210
918.63568115	1.92156863
918.63983154	1.96078432
918.64392090	1.96078432
918.64788818	1.98039210
918.64788818	1.98039210
918.65203857	2.01960778
918.65618896	2.00000000
918.66033936	2.00000000
918.66033936	2.01960778
918.66424561	1.98039210
918.66839600	2.03921580
918.67254639	2.01960778
918.67657471	1.96078432
918.67657471	1.98039210
918.68060303	2.03921580
918.68481445	2.17647052
918.68890381	2.29411769
918.68890381	2.21568632
918.69299316	2.11764717
918.69714355	2.11764717
918.70111084	2.19607854
918.70526123	2.17647052
918.70526123	2.23529410
918.70947266	2.21568632
918.71356201	2.03921580
918.71759033	2.03921580
918.71759033	1.96078432
918.72161865	2.13725495
918.72576904	2.25490189
918.72991943	2.17647052
918.73400879	2.17647052
918.73400879	2.09803915
918.73803711	2.07843137
918.74212646	2.09803915
918.74627686	2.11764717
918.74627686	2.01960778
918.75042725	2.03921580
918.75439453	1.96078432
918.75854492	1.94117641
918.76263428	1.94117641
918.76263428	1.94117641
918.76678467	1.92156863
918.77093506	1.94117641
918.77496338	1.90196073
918.77496338	1.84313726
918.77899170	1.78431368
918.78308105	1.80392158
918.78710938	1.82352936
918.79125977	1.76470590
918.79125977	1.76470590
918.79534912	1.74509799
918.79949951	1.74509799
918.80358887	1.76470590
918.80358887	1.78431368
918.80767822	1.76470590
918.81176758	1.76470590
918.81591797	1.74509799
918.82000732	1.70588231
918.82000732	1.72549021
918.82415771	1.72549021
918.82812500	1.58823526
918.83227539	1.58823526
918.83227539	1.66666663
918.83642578	1.74509799
918.84039307	1.72549021
918.84454346	1.70588231
918.84851074	1.78431368
918.84851074	1.78431368
918.85272217	1.68627453
918.85687256	1.68627453
918.86102295	1.70588231
918.86102295	1.68627453
918.86517334	1.64705884
918.86907959	1.66666663
918.87335205	1.64705884
918.87738037	1.72549021
918.88140869	1.76470590
918.88549805	1.82352936
918.88970947	1.80392158
918.88970947	1.80392158
918.89379883	1.86274505
918.89782715	1.92156863
918.90185547	2.00000000
918.90594482	1.90196073
918.91015625	1.84313726
918.91418457	1.80392158
918.91827393	1.80392158
918.91827393	1.80392158
918.92242432	2.01960778
918.92651367	2.05882359
918.93066406	2.07843137
918.93469238	2.05882359
918.93884277	2.03921580
918.94299316	2.01960778
918.94708252	2.01960778
918.94708252	1.98039210
918.95123291	2.03921580
918.95520020	2.03921580
918.95928955	2.01960778
918.96337891	1.96078432
918.96734619	1.98039210
918.97155762	2.00000000
918.97576904	1.92156863
918.97576904	1.90196073
918.97979736	1.90196073
918.98376465	1.94117641
918.98791504	1.94117641
918.99224854	2.03921580
918.99621582	1.90196073
919.00036621	1.94117641
919.00451660	1.88235295
919.00451660	1.90196073
919.00848389	1.98039210
919.01251221	2.05882359
919.01672363	2.07843137
919.01672363	2.13725495
919.02069092	2.13725495
919.02478027	2.11764717
919.02893066	2.07843137
919.03302002	2.01960778
919.03302002	1.96078432
919.03710938	1.94117641
919.04107666	1.92156863
919.04528809	1.88235295
919.04528809	2.01960778
919.04943848	2.07843137
919.05346680	2.11764717
919.05749512	2.13725495
919.06170654	2.17647052
919.06170654	2.19607854
919.06585693	2.21568632
919.06994629	2.19607854
919.07415771	2.19607854
919.07415771	2.13725495
919.07818604	2.09803915
919.08221436	2.09803915
919.08630371	2.19607854
919.09051514	2.21568632
919.09051514	2.23529410
919.09442139	2.17647052
919.09857178	2.15686274
919.10260010	2.27450991
919.10260010	2.29411769
919.10675049	2.29411769
919.11071777	2.27450991
919.11499023	2.17647052
919.11914063	2.19607854
919.11914063	2.19607854
919.12310791	2.11764717
919.12719727	2.19607854
919.13128662	2.33333325
919.13128662	2.35294127
919.13537598	2.31372547
919.13958740	2.23529410
919.14367676	2.31372547
919.14776611	2.41176462
919.14776611	2.43137264
919.15173340	2.41176462
919.15600586	2.37254906
919.16009521	2.37254906
919.16009521	2.41176462
919.16412354	2.39215684
919.16809082	2.47058821
919.17230225	2.56862736
919.17645264	2.50980401
919.17645264	2.45098042
919.18054199	2.43137264
919.18444824	2.52941179
919.18865967	2.54901958
919.18865967	2.58823538
919.19281006	2.64705873
919.19689941	2.54901958
919.20092773	2.52941179
919.20520020	2.56862736
919.20520020	2.58823538
919.20910645	2.58823538
919.21325684	2.58823538
919.21728516	2.56862736
919.21728516	2.60784316
919.22143555	2.66666675
919.22546387	2.70588231
919.22961426	2.74509811
919.23376465	2.76470590
919.23376465	2.70588231
919.23779297	2.72549009
919.24188232	2.74509811
919.24603271	2.90196085
919.24603271	2.86274505
919.25018311	2.86274505
919.25415039	2.80392146
919.25823975	2.80392146
919.26239014	2.94117641
919.26647949	2.94117641
919.27056885	2.94117641
919.27465820	2.90196085
919.27465820	2.88235283
919.27880859	2.84313726
919.28283691	2.84313726
919.28704834	2.94117641
919.29119873	2.90196085
919.29516602	2.74509811
919.29925537	2.86274505
919.30334473	2.84313726
919.30334473	2.88235283
919.30743408	2.86274505
919.31152344	2.94117641
919.31561279	2.88235283
919.31976318	2.76470590
919.32391357	2.86274505
919.32788086	2.84313726
919.33215332	2.72549009
919.33215332	2.74509811
919.33612061	2.84313726
919.34033203	2.86274505
919.34442139	2.82352948
919.34838867	3.01960778
919.35247803	3.01960778
919.35668945	2.88235283
919.36083984	2.88235283
919.36083984	2.94117641
919.36480713	2.88235283
919.36883545	2.78431368
919.37304688	2.84313726
919.37304688	2.82352948
919.37713623	2.70588231
919.38116455	2.70588231
919.38525391	2.80392146
919.38940430	2.82352948
919.38940430	2.92156863
919.39355469	2.78431368
919.39758301	2.70588231
919.40167236	2.78431368
919.40167236	2.80392146
919.40576172	2.80392146
919.40985107	2.78431368
919.41387939	2.78431368
919.41815186	2.68627453
919.41815186	2.66666675
919.42218018	2.66666675
919.42620850	2.70588231
919.43048096	2.66666675
919.43048096	2.64705873
919.43438721	2.58823538
919.43859863	2.64705873
919.44268799	2.64705873
919.44683838	2.66666675
919.44683838	2.68627453
919.45086670	2.70588231
919.45495605	2.62745094
919.45916748	2.58823538
919.45916748	2.54901958
919.46319580	2.58823538
919.46722412	2.64705873
919.47125244	2.68627453
919.47540283	2.58823538
919.47540283	2.52941179
919.47955322	2.45098042
919.48364258	2.47058821
919.48779297	2.62745094
919.48779297	2.66666675
919.49176025	2.60784316
919.49591064	2.56862736
919.50000000	2.45098042
919.50415039	2.50980401
919.50415039	2.60784316
919.50811768	2.58823538
919.51232910	2.54901958
919.51647949	2.49019599
919.51647949	2.45098042
919.52056885	2.49019599
919.52471924	2.50980401
919.52868652	2.62745094
919.53277588	2.62745094
919.53277588	2.50980401
919.53686523	2.49019599
919.54083252	2.54901958
919.54528809	2.60784316
919.54528809	2.52941179
919.54913330	2.60784316
919.55328369	2.52941179
919.55737305	2.49019599
919.56140137	2.37254906
919.56140137	2.45098042
919.56561279	2.49019599
919.56970215	2.50980401
919.57385254	2.41176462
919.57385254	2.50980401
919.57781982	2.54901958
919.58197021	2.49019599
919.58605957	2.47058821
919.59020996	2.62745094
919.59020996	2.64705873
919.59417725	2.45098042
919.59832764	2.50980401
919.60241699	2.64705873
919.60241699	2.62745094
919.60650635	2.56862736
919.61059570	2.58823538
919.61462402	2.54901958
919.61883545	2.50980401
919.62286377	2.58823538
919.62701416	2.56862736
919.63116455	2.64705873
919.63116455	2.50980401
919.63519287	2.56862736
919.63934326	2.49019599
919.64343262	2.54901958
919.64758301	2.64705873
919.65155029	2.62745094
919.65563965	2.50980401
919.65979004	2.47058821
919.65979004	2.54901958
919.66394043	2.58823538
919.66784668	2.54901958
919.67218018	2.54901958
919.67614746	2.50980401
919.68029785	2.41176462
919.68426514	2.52941179
919.68841553	2.54901958
919.68841553	2.60784316
919.69262695	2.52941179
919.69659424	2.50980401
919.70080566	2.50980401
919.70477295	2.49019599
919.70892334	2.52941179
919.71301270	2.56862736
919.71716309	2.60784316
919.71716309	2.52941179
919.72113037	2.45098042
919.72534180	2.41176462
919.72943115	2.56862736
919.73352051	2.62745094
919.73760986	2.56862736
919.74157715	2.54901958
919.74578857	2.58823538
919.74578857	2.64705873
919.74987793	2.68627453
919.75396729	2.60784316
919.75805664	2.54901958
919.75805664	2.49019599
919.76214600	2.50980401
919.76629639	2.64705873
919.77038574	2.76470590
919.77453613	2.74509811
919.77453613	2.58823538
919.77850342	2.47058821
919.78265381	2.52941179
919.78674316	2.56862736
919.78674316	2.70588231
919.79077148	2.68627453
919.79486084	2.52941179
919.79895020	2.49019599
919.80303955	2.50980401
919.80303955	2.49019599
919.80725098	2.56862736
919.81121826	2.60784316
919.81530762	2.52941179
919.81530762	2.50980401
919.81951904	2.52941179
919.82366943	2.52941179
919.82763672	2.45098042
919.83178711	2.45098042
919.83178711	2.56862736
919.83587646	2.66666675
919.84002686	2.60784316
919.84417725	2.56862736
919.84417725	2.54901958
919.84814453	2.52941179
919.85229492	2.50980401
919.85644531	2.60784316
919.86053467	2.64705873
919.86053467	2.62745094
919.86444092	2.56862736
919.86859131	2.60784316
919.87274170	2.62745094
919.87274170	2.56862736
919.87677002	2.43137264
919.88085938	2.43137264
919.88513184	2.50980401
919.88916016	2.64705873
919.88916016	2.66666675
919.89331055	2.56862736
919.89739990	2.49019599
919.90155029	2.50980401
919.90155029	2.66666675
919.90551758	2.74509811
919.90966797	2.68627453
919.91375732	2.54901958
919.91778564	2.56862736
919.91778564	2.54901958
919.92181396	2.56862736
919.92602539	2.64705873
919.93005371	2.68627453
919.93005371	2.66666675
919.93426514	2.56862736
919.93829346	2.50980401
919.94244385	2.49019599
919.94653320	2.56862736
919.94653320	2.68627453
919.95068359	2.70588231
919.95465088	2.54901958
919.95874023	2.50980401
919.95874023	2.58823538
919.96289063	2.66666675
919.96704102	2.76470590
919.97113037	2.70588231
919.97521973	2.58823538
919.97521973	2.52941179
919.97930908	2.52941179
919.98333740	2.60784316
919.98742676	2.78431368
919.98742676	2.86274505
919.99151611	2.76470590
919.99560547	2.68627453
919.99969482	2.56862736
920.00390625	3.01960778
920.00793457	2.98039222
920.01214600	2.78431368
920.01617432	2.47058821
920.01617432	2.41176462
920.02026367	2.33333325
920.02441406	2.45098042
920.02838135	2.60784316
920.03253174	2.43137264
920.03668213	2.33333325
920.04077148	2.41176462
920.04473877	2.47058821
920.04473877	2.54901958
920.04876709	2.54901958
920.05291748	2.56862736
920.05712891	2.47058821
920.06109619	2.45098042
920.06524658	2.52941179
920.06939697	2.68627453
920.07354736	2.66666675
920.07354736	2.56862736
920.07763672	2.54901958
920.08166504	2.54901958
920.08575439	2.62745094
920.08990479	2.74509811
920.09399414	2.60784316
920.09814453	2.54901958
920.10205078	2.64705873
920.10205078	2.50980401
920.10614014	2.82352948
920.11041260	2.88235283
920.11444092	2.82352948
920.11846924	2.68627453
920.12268066	2.68627453
920.12677002	2.76470590
920.13085938	2.86274505
920.13085938	2.84313726
920.13488770	2.74509811
920.13903809	2.68627453
920.14312744	2.62745094
920.14312744	2.82352948
920.14727783	2.94117641
920.15124512	2.90196085
920.15539551	2.70588231
920.15948486	2.66666675
920.15948486	2.58823538
920.16363525	2.60784316
920.16766357	2.78431368
920.17175293	2.78431368
920.17175293	2.66666675
920.17584229	2.52941179
920.17999268	2.52941179
920.18414307	2.62745094
920.18817139	2.64705873
920.18817139	2.56862736
920.19226074	2.41176462
920.19641113	2.35294127
920.20050049	2.43137264
920.20050049	2.39215684
920.20446777	2.39215684
920.20867920	2.43137264
920.21282959	2.47058821
920.21697998	2.49019599
920.21697998	2.52941179
920.22094727	2.54901958
920.22521973	2.56862736
920.22918701	2.62745094
920.22918701	2.56862736
920.23333740	2.49019599
920.23736572	2.37254906
920.24133301	2.21568632
920.24548340	2.17647052
920.24548340	2.21568632
920.24969482	2.33333325
920.25378418	2.21568632
920.25787354	2.00000000
920.25787354	1.82352936
920.26196289	1.72549021
920.26605225	1.80392158
920.27014160	2.03921580
920.27435303	2.05882359
920.27435303	1.82352936
920.27832031	1.60784316
920.28247070	1.62745094
920.28656006	1.76470590
920.28656006	1.74509799
920.29071045	1.66666663
920.29467773	1.52941179
920.29876709	1.49019611
920.30291748	1.50980389
920.30291748	1.60784316
920.30700684	1.74509799
920.31103516	1.74509799
920.31512451	1.66666663
920.31512451	1.60784316
920.31933594	1.60784316
920.32342529	1.70588231
920.32745361	1.90196073
920.33166504	1.92156863
920.33166504	1.92156863
920.33569336	1.80392158
920.33984375	1.76470590
920.34393311	1.84313726
920.34393311	1.98039210
920.34796143	2.09803915
920.35217285	2.11764717
920.35620117	2.25490189
920.36029053	2.31372547
920.36029053	2.23529410
920.36444092	2.29411769
920.36834717	2.52941179
920.37243652	2.66666675
920.37243652	2.66666675
920.37658691	2.49019599
920.38073730	2.43137264
920.38470459	2.39215684
920.38885498	2.74509811
920.39300537	2.62745094
920.39715576	2.50980401
920.40124512	2.31372547
920.40124512	2.25490189
920.40527344	2.19607854
920.40936279	2.11764717
920.41351318	2.39215684
920.41766357	2.15686274
920.42163086	2.15686274
920.42578125	2.13725495
920.42993164	2.21568632
920.42993164	2.23529410
920.43395996	2.09803915
920.43804932	2.03921580
920.44213867	1.82352936
920.44616699	1.78431368
920.45037842	1.90196073
920.45452881	1.90196073
920.45849609	1.96078432
920.45849609	1.88235295
920.46264648	1.82352936
920.46673584	1.76470590
920.47088623	1.78431368
920.47491455	1.45098042
920.47912598	1.39215684
920.48315430	1.39215684
920.48724365	1.49019611
920.48724365	1.60784316
920.49127197	1.62745094
920.49536133	1.49019611
920.49951172	1.35294116
920.50354004	1.25490201
920.50762939	1.15686274
920.51177979	1.19607842
920.51580811	1.07843137
920.51580811	1.03921568
920.52001953	1.03921568
920.52416992	1.01960790
920.52825928	1.19607842
920.52825928	1.27450979
920.53228760	1.21568632
920.53637695	1.09803927
920.54052734	1.05882359
920.54467773	1.11764705
920.54467773	1.25490201
920.54858398	1.35294116
920.55273438	1.27450979
920.55688477	1.15686274
920.55688477	1.17647064
920.56103516	1.21568632
920.56518555	1.35294116
920.56909180	1.37254906
920.57318115	1.29411769
920.57318115	1.21568632
920.57733154	1.11764705
920.58142090	1.03921568
920.58551025	1.07843137
920.58551025	1.23529410
920.58959961	1.41176474
920.59375000	1.29411769
920.59790039	1.23529410
920.60186768	1.21568632
920.60186768	1.29411769
920.60601807	1.43137252
920.61010742	1.43137252
920.61419678	1.39215684
920.61419678	1.19607842
920.61822510	1.15686274
920.62231445	1.29411769
920.62652588	1.37254906
920.63055420	1.37254906
920.63055420	1.33333337
920.63458252	1.19607842
920.63879395	1.11764705
920.64282227	1.00000000
920.64282227	1.05882359
920.64703369	1.21568632
920.65112305	1.17647064
920.65515137	0.98039216
920.65924072	0.86274511
920.65924072	0.88235295
920.66339111	0.90196079
920.66748047	0.94117647
920.67163086	0.94117647
920.67163086	0.78431374
920.67559814	0.64705884
920.67974854	0.70588237
920.68383789	0.86274511
920.68798828	1.07843137
920.68798828	1.29411769
920.69219971	1.39215684
920.69616699	1.39215684
920.70025635	1.29411769
920.70025635	1.45098042
920.70440674	1.70588231
920.70849609	1.88235295
920.71258545	1.94117641
920.71667480	1.90196073
920.71667480	1.84313726
920.72082520	1.82352936
920.72485352	2.05882359
920.72894287	2.27450991
920.72894287	2.37254906
920.73303223	2.31372547
920.73718262	2.23529410
920.74133301	2.25490189
920.74530029	2.43137264
920.74938965	2.49019599
920.75347900	2.47058821
920.75756836	2.37254906
920.75756836	2.29411769
920.76153564	2.25490189
920.76580811	2.35294127
920.76989746	2.50980401
920.77398682	2.43137264
920.77807617	2.45098042
920.78216553	2.39215684
920.78631592	2.52941179
920.78631592	2.64705873
920.79046631	2.68627453
920.79455566	2.62745094
920.79852295	2.60784316
920.80267334	2.76470590
920.80676270	2.88235283
920.81079102	2.92156863
920.81500244	2.86274505
920.81500244	2.78431368
920.81921387	2.64705873
920.82318115	2.64705873
920.82720947	2.80392146
920.83142090	2.84313726
920.83538818	2.76470590
920.83959961	2.74509811
920.84375000	2.74509811
920.84375000	2.82352948
920.84783936	2.94117641
920.85180664	2.90196085
920.85589600	2.72549009
920.86004639	2.62745094
920.86413574	2.78431368
920.86816406	2.88235283
920.87225342	2.86274505
920.87225342	2.72549009
920.87628174	2.62745094
920.88055420	2.66666675
920.88470459	2.72549009
920.88861084	2.92156863
920.89276123	2.86274505
920.89685059	2.72549009
920.90100098	2.74509811
920.90100098	2.76470590
920.90515137	2.86274505
920.90917969	2.94117641
920.91326904	2.88235283
920.91326904	2.72549009
920.91741943	2.68627453
920.92138672	2.70588231
920.92547607	2.82352948
920.92968750	2.90196085
920.92968750	2.88235283
920.93377686	2.78431368
920.93792725	2.72549009
920.94183350	2.72549009
920.94183350	2.74509811
920.94604492	2.82352948
920.95013428	2.92156863
920.95428467	2.84313726
920.95837402	2.74509811
920.95837402	2.66666675
920.96228027	2.66666675
920.96655273	2.72549009
920.97064209	2.74509811
920.97064209	2.80392146
920.97467041	2.66666675
920.97875977	2.64705873
920.98291016	2.74509811
920.98699951	2.82352948
920.98699951	2.94117641
920.99114990	3.00000000
920.99511719	2.90196085
920.99920654	2.74509811
920.99920654	2.70588231
921.00329590	2.82352948
921.00738525	2.92156863
921.01147461	2.98039222
921.01556396	2.84313726
921.01556396	2.74509811
921.01971436	2.80392146
921.02392578	2.84313726
921.02801514	2.94117641
921.02801514	3.05882359
921.03216553	3.00000000
921.03613281	2.94117641
921.04028320	2.86274505
921.04437256	2.92156863
921.04437256	3.07843137
921.04833984	3.17647052
921.05249023	3.15686274
921.05664063	3.01960778
921.05664063	2.96078420
921.06072998	3.00000000
921.06469727	3.05882359
921.06878662	3.13725495
921.07312012	3.15686274
921.07312012	3.13725495
921.07708740	3.05882359
921.08123779	2.98039222
921.08526611	2.96078420
921.08526611	3.15686274
921.08941650	3.21568632
921.09350586	3.07843137
921.09759521	2.90196085
921.10174561	2.78431368
921.10174561	2.78431368
921.10577393	2.84313726
921.10986328	2.80392146
921.11395264	2.70588231
921.11395264	2.62745094
921.11810303	2.54901958
921.12200928	2.56862736
921.12622070	2.66666675
921.13031006	2.68627453
921.13446045	2.58823538
921.13854980	2.45098042
921.14257813	2.39215684
921.14257813	2.41176462
921.14672852	2.43137264
921.15087891	2.54901958
921.15496826	2.45098042
921.15911865	2.33333325
921.16308594	2.37254906
921.16723633	2.49019599
921.17138672	2.54901958
921.17138672	2.43137264
921.17535400	2.29411769
921.17950439	2.23529410
921.18353271	2.33333325
921.18774414	2.45098042
921.19165039	2.37254906
921.19586182	2.25490189
921.20001221	2.21568632
921.20001221	2.23529410
921.20410156	2.25490189
921.20812988	2.31372547
921.21221924	2.29411769
921.21636963	2.19607854
921.22045898	2.17647052
921.22460938	2.19607854
921.22875977	2.25490189
921.22875977	2.31372547
921.23278809	2.29411769
921.23687744	2.15686274
921.24108887	2.07843137
921.24517822	2.25490189
921.24914551	2.39215684
921.25341797	2.31372547
921.25732422	2.13725495
921.25732422	2.13725495
921.26129150	2.23529410
921.26556396	2.29411769
921.26965332	2.29411769
921.26965332	2.35294127
921.27374268	2.23529410
921.27783203	2.11764717
921.28192139	2.17647052
921.28613281	2.25490189
921.28613281	2.39215684
921.29016113	2.43137264
921.29425049	2.31372547
921.29833984	2.27450991
921.29833984	2.23529410
921.30236816	2.29411769
921.30645752	2.41176462
921.31060791	2.50980401
921.31469727	2.41176462
921.31469727	2.29411769
921.31872559	2.23529410
921.32287598	2.37254906
921.32696533	2.50980401
921.32696533	2.49019599
921.33111572	2.45098042
921.33514404	2.33333325
921.33923340	2.27450991
921.34338379	2.33333325
921.34338379	2.45098042
921.34753418	2.47058821
921.35168457	2.47058821
921.35565186	2.43137264
921.35565186	2.33333325
921.35980225	2.29411769
921.36389160	2.33333325
921.36804199	2.49019599
921.37213135	2.56862736
921.37213135	2.39215684
921.37609863	2.27450991
921.38024902	2.27450991
921.38439941	2.39215684
921.38439941	2.49019599
921.38836670	2.50980401
921.39245605	2.47058821
921.39666748	2.37254906
921.40075684	2.37254906
921.40075684	2.43137264
921.40478516	2.45098042
921.40887451	2.50980401
921.41314697	2.52941179
921.41314697	2.43137264
921.41711426	2.33333325
921.42126465	2.33333325
921.42523193	2.39215684
921.42938232	2.52941179
921.42938232	2.60784316
921.43353271	2.52941179
921.43768311	2.39215684
921.44177246	2.31372547
921.44177246	2.35294127
921.44573975	2.52941179
921.44982910	2.66666675
921.45404053	2.49019599
921.45812988	2.37254906
921.45812988	2.35294127
921.46203613	2.41176462
921.46624756	2.54901958
921.47039795	2.60784316
921.47039795	2.54901958
921.47454834	2.47058821
921.47851563	2.39215684
921.48260498	2.41176462
921.48669434	2.45098042
921.48669434	2.52941179
921.49090576	2.62745094
921.49499512	2.52941179
921.49914551	2.43137264
921.49914551	2.37254906
921.50317383	2.37254906
921.50732422	2.47058821
921.51135254	2.56862736
921.51538086	2.39215684
921.51953125	2.35294127
921.52368164	2.35294127
921.52770996	2.49019599
921.52770996	2.54901958
921.53161621	2.49019599
921.53588867	2.35294127
921.54003906	2.43137264
921.54412842	2.54901958
921.54827881	2.52941179
921.55224609	2.52941179
921.55639648	2.47058821
921.55639648	2.43137264
921.56048584	2.41176462
921.56469727	2.47058821
921.56878662	2.54901958
921.57269287	2.50980401
921.57678223	2.37254906
921.58099365	2.37254906
921.58514404	2.47058821
921.58514404	2.60784316
921.58911133	2.70588231
921.59326172	2.54901958
921.59735107	2.43137264
921.60150146	2.49019599
921.60552979	2.62745094
921.60961914	2.62745094
921.61376953	2.60784316
921.61376953	2.52941179
921.61791992	2.49019599
921.62188721	2.49019599
921.62615967	2.50980401
921.63018799	2.62745094
921.63421631	2.54901958
921.63830566	2.45098042
921.64227295	2.35294127
921.64227295	2.47058821
921.64648438	2.60784316
921.65057373	2.64705873
921.65478516	2.54901958
921.65478516	2.39215684
921.65875244	2.39215684
921.66290283	2.50980401
921.66699219	2.58823538
921.67108154	2.60784316
921.67108154	2.52941179
921.67517090	2.45098042
921.67926025	2.43137264
921.68334961	2.41176462
921.68334961	2.50980401
921.68743896	2.58823538
921.69165039	2.56862736
921.69561768	2.49019599
921.69976807	2.39215684
921.69976807	2.35294127
921.70385742	2.47058821
921.70800781	2.52941179
921.71209717	2.56862736
921.71209717	2.41176462
921.71606445	2.25490189
921.72027588	2.27450991
921.72442627	2.33333325
921.72845459	2.49019599
921.72845459	2.47058821
921.73242188	2.37254906
921.73669434	2.29411769
921.74084473	2.27450991
921.74084473	2.33333325
921.74493408	2.37254906
921.74890137	2.43137264
921.75317383	2.43137264
921.75720215	2.29411769
921.75720215	2.19607854
921.76135254	2.21568632
921.76525879	2.31372547
921.76940918	2.39215684
921.76940918	2.41176462
921.77343750	2.27450991
921.77758789	2.17647052
921.78179932	2.15686274
921.78576660	2.29411769
921.78576660	2.39215684
921.78985596	2.37254906
921.79394531	2.25490189
921.79815674	2.23529410
921.79815674	2.29411769
921.80212402	2.33333325
921.80627441	2.37254906
921.81036377	2.41176462
921.81451416	2.37254906
921.81451416	2.31372547
921.81848145	2.29411769
921.82257080	2.23529410
921.82672119	2.35294127
921.82672119	2.41176462
921.83081055	2.47058821
921.83496094	2.41176462
921.83917236	2.27450991
921.84307861	2.27450991
921.84307861	2.35294127
921.84722900	2.43137264
921.85137939	2.49019599
921.85546875	2.37254906
921.85546875	2.31372547
921.85943604	2.29411769
921.86364746	2.35294127
921.86779785	2.45098042
921.87194824	2.49019599
921.87194824	2.43137264
921.87591553	2.31372547
921.88000488	2.25490189
921.88415527	2.31372547
921.88415527	2.43137264
921.88824463	2.54901958
921.89221191	2.54901958
921.89636230	2.41176462
921.90051270	2.33333325
921.90051270	2.31372547
921.90466309	2.43137264
921.90863037	2.54901958
921.91278076	2.50980401
921.91278076	2.37254906
921.91687012	2.33333325
921.92095947	2.33333325
921.92510986	2.47058821
921.92907715	2.50980401
921.93322754	2.43137264
921.93731689	2.33333325
921.94152832	2.35294127
921.94152832	2.35294127
921.94549561	2.41176462
921.94964600	2.45098042
921.95379639	2.49019599
921.95782471	2.23529410
921.96179199	2.29411769
921.96612549	2.47058821
921.97015381	2.58823538
921.97015381	2.56862736
921.97424316	2.41176462
921.97827148	2.37254906
921.98236084	2.37254906
921.98651123	2.58823538
921.99066162	2.58823538
921.99475098	2.43137264
921.99884033	2.39215684
921.99884033	2.31372547
922.00292969	2.31372547
922.00708008	2.39215684
922.01104736	2.52941179
922.01513672	2.37254906
922.01928711	2.31372547
922.02343750	2.31372547
922.02746582	2.47058821
922.02746582	2.52941179
922.03149414	2.47058821
922.03552246	2.35294127
922.03973389	2.31372547
922.04388428	2.54901958
922.04797363	2.60784316
922.05212402	2.58823538
922.05615234	2.45098042
922.05615234	2.43137264
922.06024170	2.39215684
922.06445313	2.43137264
922.06854248	2.56862736
922.06854248	2.62745094
922.07250977	2.52941179
922.07653809	2.47058821
922.08074951	2.43137264
922.08489990	2.49019599
922.08489990	2.62745094
922.08886719	2.62745094
922.09289551	2.54901958
922.09710693	2.41176462
922.09710693	2.41176462
922.10125732	2.43137264
922.10528564	2.54901958
922.10937500	2.62745094
922.11346436	2.58823538
922.11346436	2.41176462
922.11761475	2.27450991
922.12176514	2.35294127
922.12573242	2.45098042
922.12573242	2.56862736
922.12988281	2.60784316
922.13397217	2.50980401
922.13812256	2.41176462
922.14221191	2.39215684
922.14221191	2.45098042
922.14617920	2.52941179
922.15039063	2.58823538
922.15460205	2.52941179
922.15460205	2.45098042
922.15844727	2.41176462
922.16265869	2.45098042
922.16674805	2.54901958
922.17108154	2.62745094
922.17108154	2.62745094
922.17504883	2.49019599
922.17913818	2.39215684
922.18316650	2.45098042
922.18316650	2.56862736
922.18731689	2.64705873
922.19146729	2.62745094
922.19543457	2.50980401
922.19952393	2.47058821
922.19952393	2.45098042
922.20361328	2.49019599
922.20782471	2.62745094
922.21185303	2.62745094
922.21185303	2.52941179
922.21575928	2.45098042
922.21997070	2.43137264
922.22418213	2.45098042
922.22821045	2.58823538
922.22821045	2.64705873
922.23217773	2.58823538
922.23638916	2.49019599
922.24060059	2.49019599
922.24060059	2.50980401
922.24468994	2.56862736
922.24865723	2.68627453
922.25274658	2.66666675
922.25695801	2.52941179
922.25695801	2.45098042
922.26104736	2.47058821
922.26513672	2.54901958
922.26910400	2.64705873
922.26910400	2.66666675
922.27325439	2.56862736
