978.52014160	2.56862736
978.52014160	2.54901958
978.52416992	2.54901958
978.52825928	2.56862736
978.53247070	2.58823538
978.53656006	2.60784316
978.53656006	2.60784316
978.54052734	2.58823538
978.54467773	2.56862736
978.54876709	2.58823538
978.54876709	2.60784316
978.55291748	2.64705873
978.55694580	2.64705873
978.56115723	2.62745094
978.56518555	2.58823538
978.56927490	2.62745094
978.57342529	2.64705873
978.57757568	2.64705873
978.57757568	2.64705873
978.58154297	2.62745094
978.58563232	2.62745094
978.58978271	2.64705873
978.59393311	2.64705873
978.59790039	2.64705873
978.60198975	2.62745094
978.60614014	2.62745094
978.60614014	2.64705873
978.61022949	2.66666675
978.61431885	2.68627453
978.61840820	2.68627453
978.62255859	2.64705873
978.62664795	2.64705873
978.63061523	2.64705873
978.63482666	2.68627453
978.63482666	2.64705873
978.63891602	2.60784316
978.64300537	2.56862736
978.64715576	2.58823538
978.65118408	2.62745094
978.65533447	2.60784316
978.65948486	2.58823538
978.66369629	2.56862736
978.66369629	2.52941179
978.66760254	2.58823538
978.67169189	2.58823538
978.67578125	2.58823538
978.67993164	2.56862736
978.68408203	2.52941179
978.68817139	2.56862736
978.69219971	2.56862736
978.69219971	2.60784316
978.69628906	2.60784316
978.70050049	2.56862736
978.70440674	2.54901958
978.70855713	2.58823538
978.71270752	2.60784316
978.71685791	2.58823538
978.72094727	2.56862736
978.72094727	2.56862736
978.72491455	2.52941179
978.72906494	2.54901958
978.73321533	2.58823538
978.73321533	2.58823538
978.73736572	2.56862736
978.74127197	2.54901958
978.74542236	2.54901958
978.74951172	2.54901958
978.74951172	2.56862736
978.75372314	2.58823538
978.75769043	2.58823538
978.76177979	2.52941179
978.76177979	2.52941179
978.76593018	2.54901958
978.77001953	2.56862736
978.77416992	2.58823538
978.77813721	2.60784316
978.77813721	2.56862736
978.78234863	2.52941179
978.78649902	2.54901958
978.79058838	2.58823538
978.79058838	2.60784316
978.79455566	2.58823538
978.79870605	2.58823538
978.80279541	2.56862736
978.80694580	2.54901958
978.80694580	2.54901958
978.81097412	2.58823538
978.81518555	2.60784316
978.81915283	2.60784316
978.81915283	2.58823538
978.82330322	2.58823538
978.82745361	2.60784316
978.83154297	2.64705873
978.83557129	2.64705873
978.83557129	2.62745094
978.83972168	2.60784316
978.84387207	2.54901958
978.84808350	2.54901958
978.84808350	2.58823538
978.85198975	2.62745094
978.85607910	2.60784316
978.86016846	2.58823538
978.86431885	2.56862736
978.86431885	2.56862736
978.86834717	2.56862736
978.87243652	2.58823538
978.87652588	2.60784316
978.87652588	2.62745094
978.88067627	2.56862736
978.88470459	2.52941179
978.88879395	2.50980401
978.89288330	2.54901958
978.89288330	2.58823538
978.89697266	2.58823538
978.90118408	2.54901958
978.90515137	2.50980401
978.90515137	2.52941179
978.90930176	2.54901958
978.91345215	2.58823538
978.91760254	2.58823538
978.92163086	2.56862736
978.92163086	2.52941179
978.92572021	2.52941179
978.92980957	2.54901958
978.93389893	2.58823538
978.93389893	2.58823538
978.93798828	2.58823538
978.94213867	2.54901958
978.94616699	2.50980401
978.95025635	2.56862736
978.95428467	2.58823538
978.95837402	2.60784316
978.96252441	2.56862736
978.96252441	2.54901958
978.96673584	2.54901958
978.97088623	2.56862736
978.97485352	2.60784316
978.97894287	2.58823538
978.98309326	2.56862736
978.98718262	2.56862736
978.99139404	2.58823538
978.99139404	2.62745094
978.99530029	2.64705873
978.99938965	2.62745094
979.00354004	2.60784316
979.00775146	2.58823538
979.01165771	2.60784316
979.01580811	2.62745094
979.01995850	2.64705873
979.01995850	2.60784316
979.02410889	2.58823538
979.02825928	2.60784316
979.03222656	2.62745094
979.03637695	2.62745094
979.04046631	2.60784316
979.04449463	2.58823538
979.04852295	2.60784316
979.04852295	2.62745094
979.05267334	2.62745094
979.05682373	2.62745094
979.06091309	2.60784316
979.06494141	2.56862736
979.06909180	2.58823538
979.07324219	2.62745094
979.07727051	2.62745094
979.07727051	2.60784316
979.08129883	2.56862736
979.08544922	2.52941179
979.08953857	2.56862736
979.08953857	2.60784316
979.09368896	2.62745094
979.09765625	2.60784316
979.10174561	2.56862736
979.10589600	2.54901958
979.10589600	2.56862736
979.10998535	2.58823538
979.11419678	2.58823538
979.11822510	2.58823538
979.11822510	2.58823538
979.12231445	2.56862736
979.12646484	2.56862736
979.13061523	2.60784316
979.13476563	2.62745094
979.13476563	2.66666675
979.13873291	2.66666675
979.14282227	2.64705873
979.14697266	2.64705873
979.14697266	2.68627453
979.15112305	2.70588231
979.15521240	2.74509811
979.15924072	2.72549009
979.16333008	2.68627453
979.16333008	2.68627453
979.16741943	2.68627453
979.17150879	2.70588231
979.17553711	2.68627453
979.17553711	2.62745094
979.17968750	2.56862736
979.18383789	2.52941179
979.18780518	2.52941179
979.19189453	2.54901958
979.19189453	2.58823538
979.19604492	2.58823538
979.20019531	2.58823538
979.20434570	2.58823538
979.20434570	2.58823538
979.20831299	2.58823538
979.21246338	2.60784316
979.21661377	2.62745094
979.22076416	2.62745094
979.22076416	2.60784316
979.22473145	2.60784316
979.22888184	2.62745094
979.23297119	2.64705873
979.23297119	2.66666675
979.23706055	2.66666675
979.24121094	2.64705873
979.24517822	2.60784316
979.24926758	2.62745094
979.24926758	2.66666675
979.25347900	2.66666675
979.25756836	2.66666675
979.26153564	2.64705873
979.26153564	2.62745094
979.26562500	2.64705873
979.26977539	2.68627453
979.27392578	2.68627453
979.27801514	2.68627453
979.27801514	2.68627453
979.28216553	2.64705873
979.28619385	2.64705873
979.29022217	2.68627453
979.29022217	2.72549009
979.29418945	2.74509811
979.29846191	2.72549009
979.30249023	2.68627453
979.30664063	2.68627453
979.30664063	2.70588231
979.31079102	2.72549009
979.31481934	2.72549009
979.31890869	2.72549009
979.31890869	2.70588231
979.32299805	2.66666675
979.32714844	2.68627453
979.33111572	2.72549009
979.33532715	2.72549009
979.33947754	2.70588231
979.34362793	2.68627453
979.34771729	2.68627453
979.34771729	2.70588231
979.35168457	2.70588231
979.35589600	2.72549009
979.35992432	2.72549009
979.36401367	2.70588231
979.36822510	2.70588231
979.37219238	2.72549009
979.37628174	2.72549009
979.37628174	2.72549009
979.38037109	2.70588231
979.38446045	2.68627453
979.38854980	2.68627453
979.39263916	2.72549009
979.39685059	2.72549009
979.40093994	2.70588231
979.40502930	2.66666675
979.40502930	2.64705873
979.40917969	2.66666675
979.41314697	2.68627453
979.41729736	2.68627453
979.42132568	2.64705873
979.42547607	2.62745094
979.42956543	2.62745094
979.43365479	2.64705873
979.43365479	2.66666675
979.43774414	2.66666675
979.44183350	2.64705873
979.44592285	2.62745094
979.44995117	2.60784316
979.45416260	2.64705873
979.45812988	2.64705873
979.46228027	2.62745094
979.46228027	2.58823538
979.46636963	2.58823538
979.47052002	2.60784316
979.47467041	2.62745094
979.47467041	2.64705873
979.47863770	2.62745094
979.48278809	2.58823538
979.48693848	2.56862736
979.49108887	2.58823538
979.49108887	2.60784316
979.49523926	2.66666675
979.49920654	2.62745094
979.50329590	2.60784316
979.50329590	2.56862736
979.50744629	2.58823538
979.51141357	2.62745094
979.51562500	2.64705873
979.51953125	2.62745094
979.51953125	2.60784316
979.52368164	2.62745094
979.52770996	2.62745094
979.53192139	2.64705873
979.53192139	2.68627453
979.53613281	2.66666675
979.54010010	2.64705873
979.54418945	2.62745094
979.54827881	2.58823538
979.54827881	2.62745094
979.55236816	2.64705873
979.55651855	2.64705873
979.56060791	2.64705873
979.56060791	2.60784316
979.56469727	2.58823538
979.56866455	2.62745094
979.57287598	2.58823538
979.57708740	2.64705873
979.57708740	2.62745094
979.58117676	2.58823538
979.58514404	2.56862736
979.58929443	2.54901958
979.58929443	2.56862736
979.59332275	2.56862736
979.59753418	2.58823538
979.60156250	2.54901958
979.60559082	2.52941179
979.60559082	2.54901958
979.60974121	2.56862736
979.61389160	2.58823538
979.61804199	2.58823538
979.61804199	2.54901958
979.62213135	2.52941179
979.62609863	2.50980401
979.63024902	2.54901958
979.63439941	2.58823538
979.63439941	2.58823538
979.63836670	2.54901958
979.64245605	2.50980401
979.64660645	2.50980401
979.64660645	2.52941179
979.65069580	2.54901958
979.65472412	2.52941179
979.65881348	2.52941179
979.66296387	2.50980401
979.66296387	2.49019599
979.66711426	2.45098042
979.67108154	2.49019599
979.67523193	2.50980401
979.67523193	2.54901958
979.67932129	2.50980401
979.68353271	2.49019599
979.68756104	2.50980401
979.69158936	2.52941179
979.69567871	2.56862736
979.69989014	2.54901958
979.70397949	2.50980401
979.70397949	2.49019599
979.70812988	2.52941179
979.71209717	2.54901958
979.71624756	2.54901958
979.72027588	2.50980401
979.72448730	2.50980401
979.72845459	2.50980401
979.73260498	2.54901958
979.73260498	2.54901958
979.73675537	2.54901958
979.74090576	2.54901958
979.74481201	2.50980401
979.74908447	2.54901958
979.75317383	2.56862736
979.75732422	2.58823538
979.76141357	2.56862736
979.76141357	2.52941179
979.76544189	2.52941179
979.76959229	2.56862736
979.77368164	2.58823538
979.77777100	2.58823538
979.78186035	2.52941179
979.78594971	2.50980401
979.79010010	2.52941179
979.79010010	2.54901958
979.79418945	2.56862736
979.79821777	2.56862736
979.80230713	2.52941179
979.80645752	2.49019599
979.81060791	2.52941179
979.81463623	2.54901958
979.81866455	2.54901958
979.81866455	2.54901958
979.82281494	2.50980401
979.82690430	2.49019599
979.83105469	2.50980401
979.83105469	2.54901958
979.83514404	2.56862736
979.83911133	2.52941179
979.84326172	2.52941179
979.84735107	2.52941179
979.84735107	2.54901958
979.85137939	2.56862736
979.85552979	2.56862736
979.85961914	2.60784316
979.85961914	2.58823538
979.86370850	2.60784316
979.86798096	2.62745094
979.87194824	2.64705873
979.87615967	2.62745094
979.87615967	2.62745094
979.88012695	2.60784316
979.88427734	2.54901958
979.88848877	2.50980401
979.88848877	2.50980401
979.89239502	2.49019599
979.89654541	2.50980401
979.90069580	2.49019599
979.90478516	2.43137264
979.90478516	2.45098042
979.90881348	2.47058821
979.91290283	2.52941179
979.91705322	2.54901958
979.91705322	2.54901958
979.92114258	2.52941179
979.92510986	2.50980401
979.92926025	2.50980401
979.93341064	2.54901958
979.93341064	2.54901958
979.93756104	2.54901958
979.94158936	2.56862736
979.94567871	2.54901958
979.94567871	2.54901958
979.94976807	2.54901958
979.95397949	2.58823538
979.95794678	2.58823538
979.96215820	2.56862736
979.96215820	2.54901958
979.96612549	2.54901958
979.97027588	2.58823538
979.97442627	2.58823538
979.97442627	2.60784316
979.97839355	2.56862736
979.98254395	2.54901958
979.98663330	2.56862736
979.99084473	2.56862736
979.99084473	2.58823538
979.99481201	2.62745094
979.99890137	2.60784316
980.00317383	2.60784316
980.00317383	2.58823538
980.00720215	2.60784316
980.01129150	2.62745094
980.01531982	2.66666675
980.01940918	2.64705873
980.01940918	2.60784316
980.02349854	2.56862736
980.02764893	2.58823538
980.03167725	2.62745094
980.03167725	2.64705873
980.03576660	2.62745094
980.03979492	2.60784316
980.04394531	2.60784316
980.04815674	2.62745094
980.05218506	2.64705873
980.05627441	2.64705873
980.06030273	2.62745094
980.06030273	2.60784316
980.06451416	2.58823538
980.06848145	2.60784316
980.07263184	2.64705873
980.07666016	2.64705873
980.08093262	2.60784316
980.08489990	2.56862736
980.08911133	2.58823538
980.08911133	2.58823538
980.09313965	2.62745094
980.09722900	2.60784316
980.10144043	2.56862736
980.10540771	2.52941179
980.10949707	2.54901958
980.11358643	2.58823538
980.11773682	2.56862736
980.11773682	2.56862736
980.12170410	2.50980401
980.12591553	2.49019599
980.13000488	2.52941179
980.13409424	2.56862736
980.13812256	2.54901958
980.14227295	2.54901958
980.14642334	2.52941179
980.14642334	2.49019599
980.15057373	2.52941179
980.15454102	2.54901958
980.15863037	2.54901958
980.16278076	2.49019599
980.16699219	2.49019599
980.17108154	2.54901958
980.17523193	2.56862736
980.17523193	2.58823538
980.17919922	2.56862736
980.18334961	2.52941179
980.18743896	2.50980401
980.18743896	2.50980401
980.19140625	2.54901958
980.19555664	2.56862736
980.19964600	2.54901958
980.20379639	2.50980401
980.20379639	2.47058821
980.20794678	2.49019599
980.21191406	2.54901958
980.21618652	2.58823538
980.21618652	2.54901958
980.22015381	2.52941179
980.22430420	2.49019599
980.22833252	2.49019599
980.23242188	2.52941179
980.23242188	2.54901958
980.23657227	2.56862736
980.24072266	2.52941179
980.24481201	2.52941179
980.24481201	2.52941179
980.24877930	2.56862736
980.25292969	2.58823538
980.25708008	2.60784316
980.26116943	2.56862736
980.26116943	2.54901958
980.26513672	2.50980401
980.26928711	2.54901958
980.27349854	2.56862736
980.27349854	2.56862736
980.27752686	2.58823538
980.28155518	2.56862736
980.28570557	2.52941179
980.28979492	2.54901958
980.28979492	2.54901958
980.29388428	2.54901958
980.29791260	2.54901958
980.30218506	2.56862736
980.30218506	2.56862736
980.30609131	2.54901958
980.31024170	2.54901958
980.31433105	2.54901958
980.31854248	2.56862736
980.31854248	2.52941179
980.32244873	2.50980401
980.32666016	2.50980401
980.33074951	2.54901958
980.33074951	2.58823538
980.33477783	2.58823538
980.33892822	2.58823538
980.34301758	2.56862736
980.34710693	2.54901958
980.34710693	2.58823538
980.35131836	2.58823538
980.35534668	2.60784316
980.35943604	2.62745094
980.35943604	2.60784316
980.36358643	2.64705873
980.36767578	2.62745094
980.37164307	2.64705873
980.37585449	2.62745094
980.37585449	2.64705873
980.37994385	2.60784316
980.38403320	2.60784316
980.38818359	2.60784316
980.38818359	2.62745094
980.39221191	2.62745094
980.39630127	2.62745094
980.40045166	2.58823538
980.40454102	2.58823538
980.40850830	2.60784316
980.41265869	2.62745094
980.41680908	2.62745094
980.41680908	2.64705873
980.42083740	2.62745094
980.42492676	2.62745094
980.42913818	2.62745094
980.43316650	2.66666675
980.43731689	2.66666675
980.44146729	2.58823538
980.44543457	2.62745094
980.44543457	2.64705873
980.44952393	2.68627453
980.45367432	2.70588231
980.45782471	2.68627453
980.46191406	2.66666675
980.46594238	2.66666675
980.47003174	2.66666675
980.47418213	2.70588231
980.47418213	2.68627453
980.47821045	2.68627453
980.48229980	2.62745094
980.48645020	2.60784316
980.49053955	2.60784316
980.49468994	2.64705873
980.49871826	2.62745094
980.50280762	2.58823538
980.50280762	2.60784316
980.50689697	2.58823538
980.51110840	2.58823538
980.51519775	2.62745094
980.51916504	2.66666675
980.52325439	2.62745094
980.52746582	2.54901958
980.53155518	2.54901958
980.53155518	2.52941179
980.53558350	2.52941179
980.53973389	2.52941179
980.54382324	2.56862736
980.54382324	2.56862736
980.54797363	2.58823538
980.55194092	2.62745094
980.55615234	2.64705873
980.56024170	2.66666675
980.56024170	2.64705873
980.56433105	2.62745094
980.56829834	2.68627453
980.57244873	2.72549009
980.57244873	2.72549009
980.57653809	2.72549009
980.58062744	2.62745094
980.58465576	2.58823538
980.58880615	2.58823538
980.58880615	2.58823538
980.59283447	2.54901958
980.59698486	2.56862736
980.60119629	2.54901958
980.60119629	2.54901958
980.60510254	2.54901958
980.60925293	2.62745094
980.61340332	2.62745094
980.61755371	2.62745094
980.61755371	2.60784316
980.62170410	2.58823538
980.62567139	2.56862736
980.62982178	2.56862736
980.62982178	2.62745094
980.63391113	2.62745094
980.63800049	2.62745094
980.64221191	2.58823538
980.64617920	2.60784316
980.64617920	2.56862736
980.65032959	2.54901958
980.65429688	2.56862736
980.65850830	2.58823538
980.65850830	2.60784316
980.66253662	2.56862736
980.66668701	2.56862736
980.67077637	2.58823538
980.67498779	2.60784316
980.67498779	2.66666675
980.67895508	2.62745094
980.68310547	2.58823538
980.68719482	2.60784316
980.68719482	2.62745094
980.69128418	2.66666675
980.69531250	2.68627453
980.69946289	2.70588231
980.70349121	2.68627453
980.70349121	2.66666675
980.70764160	2.66666675
980.71173096	2.68627453
980.71582031	2.68627453
980.71582031	2.64705873
980.71990967	2.60784316
980.72399902	2.60784316
980.72821045	2.58823538
980.73217773	2.62745094
980.73217773	2.64705873
980.73632813	2.68627453
980.74047852	2.66666675
980.74456787	2.58823538
980.74456787	2.60784316
980.74853516	2.60784316
980.75274658	2.64705873
980.75683594	2.64705873
980.76092529	2.60784316
980.76495361	2.56862736
980.76916504	2.60784316
980.77319336	2.60784316
980.77319336	2.64705873
980.77728271	2.62745094
980.78137207	2.60784316
980.78540039	2.54901958
980.78955078	2.58823538
980.79364014	2.60784316
980.79785156	2.60784316
980.80194092	2.60784316
980.80194092	2.52941179
980.80596924	2.50980401
980.81005859	2.50980401
980.81420898	2.54901958
980.81835938	2.52941179
980.82232666	2.49019599
980.82641602	2.47058821
980.83062744	2.50980401
980.83062744	2.50980401
980.83465576	2.52941179
980.83862305	2.47058821
980.84283447	2.47058821
980.84692383	2.45098042
980.85101318	2.49019599
980.85516357	2.50980401
980.85925293	2.47058821
980.85925293	2.45098042
980.86334229	2.45098042
980.86749268	2.45098042
980.87158203	2.50980401
980.87554932	2.50980401
980.87969971	2.49019599
980.88385010	2.45098042
980.88793945	2.47058821
980.88793945	2.49019599
980.89190674	2.54901958
980.89624023	2.52941179
980.90020752	2.52941179
980.90020752	2.50980401
980.90429688	2.52941179
980.90832520	2.52941179
980.91247559	2.52941179
980.91656494	2.54901958
980.91656494	2.54901958
980.92065430	2.54901958
980.92474365	2.52941179
980.92871094	2.56862736
980.92871094	2.60784316
980.93292236	2.62745094
980.93695068	2.64705873
980.94110107	2.60784316
980.94525146	2.60784316
980.94525146	2.60784316
980.94927979	2.64705873
980.95336914	2.66666675
980.95751953	2.68627453
980.95751953	2.66666675
980.96154785	2.62745094
980.96563721	2.60784316
980.96978760	2.64705873
980.97387695	2.68627453
980.97387695	2.66666675
980.97802734	2.68627453
980.98211670	2.64705873
980.98614502	2.60784316
980.98614502	2.62745094
980.99029541	2.62745094
980.99438477	2.62745094
980.99835205	2.62745094
981.00250244	2.58823538
981.00250244	2.56862736
981.00677490	2.58823538
981.01080322	2.60784316
981.01495361	2.64705873
981.01495361	2.66666675
981.01892090	2.60784316
981.02301025	2.58823538
981.02716064	2.56862736
981.03137207	2.62745094
981.03137207	2.64705873
981.03527832	2.66666675
981.03936768	2.64705873
981.04357910	2.60784316
981.04357910	2.56862736
981.04766846	2.56862736
981.05181885	2.56862736
981.05578613	2.56862736
981.05993652	2.56862736
981.05993652	2.52941179
981.06408691	2.54901958
981.06823730	2.54901958
981.07220459	2.56862736
981.07220459	2.58823538
981.07629395	2.58823538
981.08038330	2.54901958
981.08453369	2.52941179
981.08868408	2.54901958
981.08868408	2.54901958
981.09265137	2.58823538
981.09674072	2.58823538
981.10089111	2.58823538
981.10089111	2.54901958
981.10504150	2.52941179
981.10913086	2.50980401
981.11315918	2.52941179
981.11730957	2.58823538
981.11730957	2.60784316
981.12139893	2.58823538
981.12536621	2.54901958
981.12945557	2.54901958
981.12945557	2.56862736
981.13366699	2.60784316
981.13775635	2.60784316
981.14178467	2.58823538
981.14593506	2.56862736
981.15002441	2.58823538
981.15405273	2.60784316
981.15826416	2.60784316
981.15826416	2.60784316
981.16217041	2.58823538
981.16638184	2.58823538
981.17053223	2.60784316
981.17462158	2.64705873
981.17864990	2.64705873
981.18273926	2.60784316
981.18688965	2.58823538
981.18688965	2.54901958
981.19104004	2.56862736
981.19512939	2.56862736
981.19909668	2.56862736
981.20324707	2.58823538
981.20733643	2.60784316
981.21148682	2.64705873
981.21551514	2.64705873
981.21551514	2.64705873
981.21966553	2.62745094
981.22369385	2.56862736
981.22790527	2.50980401
981.23187256	2.58823538
981.23614502	2.66666675
981.24011230	2.68627453
981.24426270	2.64705873
981.24426270	2.62745094
981.24822998	2.62745094
981.25238037	2.68627453
981.25653076	2.74509811
981.25653076	2.78431368
981.26068115	2.72549009
981.26477051	2.68627453
981.26873779	2.68627453
981.27288818	2.72549009
981.27288818	2.68627453
981.27697754	2.62745094
981.28112793	2.56862736
981.28527832	2.49019599
981.28527832	2.49019599
981.28930664	2.52941179
981.29333496	2.54901958
981.29748535	2.56862736
981.30163574	2.54901958
981.30163574	2.52941179
981.30560303	2.50980401
981.30969238	2.52941179
981.31384277	2.56862736
981.31384277	2.58823538
981.31805420	2.58823538
981.32214355	2.54901958
981.32611084	2.50980401
981.33026123	2.54901958
981.33026123	2.60784316
981.33435059	2.62745094
981.33850098	2.60784316
981.34246826	2.56862736
981.34246826	2.52941179
981.34661865	2.52941179
981.35083008	2.54901958
981.35485840	2.56862736
981.35888672	2.58823538
981.35888672	2.58823538
981.36315918	2.54901958
981.36712646	2.54901958
981.37127686	2.54901958
981.37127686	2.56862736
981.37524414	2.56862736
981.37939453	2.54901958
981.38354492	2.50980401
981.38769531	2.50980401
981.38769531	2.54901958
981.39196777	2.60784316
981.39575195	2.64705873
981.39996338	2.62745094
981.39996338	2.60784316
981.40405273	2.56862736
981.40814209	2.60784316
981.41217041	2.64705873
981.41632080	2.64705873
981.41632080	2.62745094
981.42041016	2.62745094
981.42449951	2.58823538
981.42864990	2.60784316
981.42864990	2.64705873
981.43267822	2.70588231
981.43682861	2.72549009
981.44097900	2.72549009
981.44506836	2.68627453
981.44506836	2.68627453
981.44915771	2.68627453
981.45318604	2.70588231
981.45727539	2.68627453
981.45727539	2.68627453
981.46142578	2.64705873
981.46539307	2.62745094
981.46948242	2.62745094
981.47363281	2.64705873
981.47363281	2.66666675
981.47778320	2.66666675
981.48193359	2.60784316
981.48590088	2.56862736
981.48590088	2.56862736
981.49005127	2.60784316
981.49420166	2.64705873
981.49829102	2.64705873
981.50231934	2.58823538
981.50646973	2.56862736
981.51055908	2.56862736
981.51477051	2.56862736
981.51477051	2.56862736
981.51867676	2.54901958
981.52276611	2.54901958
981.52691650	2.54901958
981.53106689	2.56862736
981.53515625	2.54901958
981.53912354	2.52941179
981.54327393	2.50980401
981.54327393	2.52941179
981.54742432	2.49019599
981.55157471	2.49019599
981.55554199	2.54901958
981.55969238	2.50980401
981.56384277	2.50980401
981.56793213	2.49019599
981.57208252	2.49019599
981.57208252	2.49019599
981.57617188	2.49019599
981.58020020	2.50980401
981.58428955	2.54901958
981.58837891	2.52941179
981.59252930	2.54901958
981.59655762	2.54901958
981.60064697	2.54901958
981.60064697	2.50980401
981.60479736	2.50980401
981.60876465	2.52941179
981.61285400	2.56862736
981.61285400	2.58823538
981.61700439	2.58823538
981.62115479	2.56862736
981.62512207	2.52941179
981.62921143	2.50980401
981.62921143	2.52941179
981.63342285	2.56862736
981.63751221	2.58823538
981.64166260	2.56862736
981.64166260	2.52941179
981.64569092	2.52941179
981.64978027	2.52941179
981.65386963	2.54901958
981.65808105	2.56862736
981.65808105	2.56862736
981.66229248	2.56862736
981.66619873	2.56862736
981.67028809	2.58823538
981.67028809	2.60784316
981.67437744	2.64705873
981.67852783	2.62745094
981.68249512	2.60784316
981.68664551	2.54901958
981.68664551	2.54901958
981.69073486	2.58823538
981.69488525	2.60784316
981.69903564	2.58823538
981.69903564	2.58823538
981.70306396	2.54901958
981.70709229	2.56862736
981.71118164	2.60784316
981.71539307	2.58823538
981.71539307	2.62745094
981.71936035	2.60784316
981.72351074	2.56862736
981.72760010	2.56862736
981.72760010	2.56862736
981.73175049	2.60784316
981.73571777	2.60784316
981.73986816	2.56862736
981.74395752	2.54901958
981.74395752	2.54901958
981.74810791	2.58823538
981.75207520	2.60784316
981.75628662	2.62745094
981.75628662	2.62745094
981.76043701	2.58823538
981.76452637	2.56862736
981.76861572	2.56862736
981.77264404	2.58823538
981.77264404	2.60784316
981.77679443	2.60784316
981.78088379	2.58823538
981.78503418	2.54901958
981.78503418	2.54901958
981.78924561	2.54901958
981.79315186	2.56862736
981.79730225	2.56862736
981.80145264	2.56862736
981.80145264	2.52941179
981.80541992	2.50980401
981.80950928	2.50980401
981.81359863	2.52941179
981.81359863	2.56862736
981.81781006	2.52941179
981.82189941	2.50980401
981.82592773	2.47058821
981.83020020	2.47058821
981.83020020	2.49019599
981.83416748	2.50980401
981.83825684	2.52941179
981.84240723	2.50980401
981.84240723	2.47058821
981.84643555	2.45098042
981.85052490	2.43137264
981.85461426	2.47058821
981.85876465	2.50980401
981.85876465	2.50980401
981.86273193	2.49019599
981.86688232	2.47058821
981.87103271	2.50980401
981.87103271	2.52941179
981.87512207	2.54901958
981.87915039	2.56862736
981.88336182	2.54901958
981.88745117	2.54901958
981.89154053	2.60784316
981.89550781	2.62745094
981.89971924	2.62745094
981.89971924	2.60784316
981.90374756	2.56862736
981.90789795	2.56862736
981.91204834	2.52941179
981.91619873	2.49019599
981.92010498	2.45098042
981.92425537	2.43137264
981.92840576	2.43137264
981.92840576	2.47058821
981.93243408	2.49019599
981.93658447	2.50980401
981.94073486	2.50980401
981.94482422	2.47058821
981.94879150	2.50980401
981.95294189	2.54901958
981.95715332	2.58823538
981.95715332	2.56862736
981.96118164	2.52941179
981.96527100	2.52941179
981.96923828	2.52941179
981.97338867	2.58823538
981.97753906	2.58823538
981.98168945	2.56862736
981.98577881	2.52941179
981.98577881	2.52941179
981.98980713	2.58823538
981.99389648	2.58823538
981.99798584	2.58823538
982.00213623	2.56862736
982.00610352	2.54901958
982.01025391	2.58823538
982.01434326	2.60784316
982.01434326	2.62745094
982.01849365	2.62745094
982.02246094	2.60784316
982.02667236	2.58823538
982.02667236	2.60784316
982.03082275	2.64705873
982.03491211	2.68627453
982.03887939	2.68627453
982.04315186	2.68627453
982.04315186	2.64705873
982.04718018	2.62745094
982.05126953	2.66666675
982.05535889	2.68627453
982.05535889	2.68627453
982.05938721	2.68627453
982.06353760	2.66666675
982.06768799	2.66666675
982.07177734	2.66666675
982.07177734	2.68627453
982.07568359	2.72549009
982.07989502	2.70588231
982.08404541	2.70588231
982.08404541	2.68627453
982.08813477	2.68627453
982.09210205	2.68627453
982.09631348	2.72549009
982.10046387	2.70588231
982.10046387	2.64705873
982.10455322	2.60784316
982.10864258	2.60784316
982.11267090	2.64705873
982.11267090	2.64705873
982.11682129	2.62745094
982.12084961	2.64705873
982.12500000	2.64705873
982.12908936	2.62745094
982.12908936	2.60784316
982.13311768	2.60784316
982.13726807	2.62745094
982.14135742	2.60784316
982.14135742	2.58823538
982.14538574	2.56862736
982.14947510	2.54901958
982.15362549	2.56862736
982.15777588	2.60784316
982.15777588	2.60784316
982.16192627	2.56862736
982.16589355	2.54901958
982.17010498	2.52941179
982.17010498	2.56862736
982.17413330	2.58823538
982.17834473	2.60784316
982.18218994	2.56862736
982.18634033	2.54901958
982.18634033	2.52941179
982.19049072	2.56862736
982.19458008	2.58823538
982.19879150	2.58823538
982.19879150	2.60784316
982.20269775	2.58823538
982.20684814	2.56862736
982.21105957	2.56862736
982.21520996	2.58823538
982.21520996	2.62745094
982.21917725	2.58823538
982.22326660	2.56862736
982.22735596	2.56862736
982.22735596	2.58823538
982.23162842	2.60784316
982.23553467	2.60784316
982.23962402	2.58823538
982.24371338	2.52941179
982.24786377	2.54901958
982.25201416	2.58823538
982.25610352	2.60784316
982.25610352	2.58823538
982.26013184	2.60784316
982.26422119	2.58823538
982.26837158	2.58823538
982.27252197	2.58823538
982.27655029	2.60784316
982.28070068	2.58823538
982.28479004	2.58823538
982.28479004	2.56862736
982.28875732	2.58823538
982.29296875	2.60784316
982.29705811	2.62745094
982.30108643	2.60784316
982.30523682	2.56862736
982.30926514	2.56862736
982.31335449	2.56862736
982.31335449	2.60784316
982.31750488	2.60784316
982.32165527	2.58823538
982.32562256	2.54901958
982.32977295	2.54901958
982.33398438	2.56862736
982.33807373	2.54901958
982.34216309	2.54901958
982.34216309	2.52941179
982.34613037	2.49019599
982.35028076	2.49019599
982.35437012	2.50980401
982.35852051	2.54901958
982.36254883	2.54901958
982.36669922	2.52941179
982.37078857	2.54901958
982.37078857	2.56862736
982.37487793	2.58823538
982.37908936	2.58823538
982.38323975	2.52941179
982.38323975	2.50980401
982.38720703	2.52941179
982.39129639	2.54901958
982.39544678	2.56862736
982.39941406	2.56862736
982.39941406	2.54901958
982.40350342	2.52941179
982.40765381	2.52941179
982.41174316	2.56862736
982.41174316	2.58823538
982.41583252	2.56862736
982.41986084	2.54901958
982.42401123	2.50980401
982.42816162	2.50980401
982.42816162	2.50980401
982.43212891	2.52941179
982.43621826	2.54901958
982.44036865	2.54901958
982.44036865	2.50980401
982.44451904	2.47058821
982.44860840	2.49019599
982.45263672	2.50980401
982.45672607	2.56862736
982.45672607	2.54901958
982.46093750	2.54901958
982.46502686	2.50980401
982.46917725	2.52941179
982.46917725	2.54901958
982.47314453	2.56862736
982.47729492	2.56862736
982.48132324	2.54901958
982.48547363	2.54901958
982.48547363	2.54901958
982.48950195	2.58823538
982.49365234	2.58823538
982.49774170	2.60784316
982.49774170	2.58823538
982.50189209	2.56862736
982.50585938	2.54901958
982.51013184	2.58823538
982.51416016	2.62745094
982.51416016	2.64705873
982.51831055	2.64705873
982.52233887	2.62745094
982.52655029	2.62745094
982.52655029	2.62745094
982.53051758	2.62745094
982.53466797	2.66666675
982.53875732	2.68627453
982.54284668	2.66666675
982.54284668	2.62745094
982.54693604	2.62745094
982.55108643	2.60784316
982.55511475	2.60784316
982.55511475	2.58823538
982.55914307	2.54901958
982.56329346	2.52941179
982.56744385	2.52941179
982.57153320	2.54901958
982.57153320	2.56862736
982.57568359	2.56862736
982.57965088	2.58823538
982.58380127	2.58823538
982.58380127	2.52941179
982.58795166	2.56862736
982.59204102	2.58823538
982.59613037	2.58823538
982.60015869	2.60784316
982.60424805	2.60784316
982.60839844	2.56862736
982.61248779	2.56862736
982.61248779	2.60784316
982.61657715	2.58823538
982.62066650	2.56862736
982.62475586	2.54901958
982.62890625	2.58823538
982.63287354	2.60784316
982.63714600	2.62745094
982.64111328	2.62745094
982.64111328	2.60784316
982.64526367	2.60784316
982.64923096	2.62745094
982.65338135	2.64705873
982.65759277	2.64705873
982.66168213	2.62745094
982.66564941	2.60784316
982.66973877	2.58823538
982.66973877	2.62745094
982.67388916	2.66666675
982.67803955	2.66666675
982.68218994	2.64705873
982.68615723	2.60784316
982.69024658	2.62745094
982.69439697	2.62745094
982.69854736	2.66666675
982.69854736	2.66666675
982.70257568	2.64705873
982.70666504	2.64705873
982.71081543	2.64705873
982.71490479	2.66666675
982.71905518	2.66666675
982.72314453	2.64705873
982.72711182	2.60784316
982.72711182	2.58823538
982.73126221	2.60784316
982.73541260	2.64705873
982.73937988	2.64705873
982.74346924	2.58823538
982.74786377	2.58823538
982.75183105	2.62745094
982.75598145	2.62745094
982.75598145	2.60784316
982.75994873	2.62745094
982.76403809	2.60784316
982.76818848	2.58823538
982.76818848	2.56862736
982.77233887	2.56862736
982.77630615	2.56862736
982.78045654	2.54901958
982.78454590	2.54901958
982.78454590	2.50980401
982.78863525	2.52941179
982.79266357	2.54901958
982.79675293	2.54901958
982.79675293	2.56862736
982.80096436	2.50980401
982.80499268	2.50980401
982.80914307	2.54901958
982.81311035	2.52941179
982.81311035	2.52941179
982.81726074	2.52941179
982.82135010	2.50980401
982.82550049	2.49019599
982.82550049	2.49019599
982.82952881	2.47058821
982.83361816	2.49019599
982.83770752	2.47058821
982.84185791	2.47058821
982.84185791	2.45098042
982.84594727	2.47058821
982.85015869	2.50980401
982.85412598	2.45098042
982.85412598	2.49019599
982.85827637	2.41176462
982.86242676	2.45098042
982.86639404	2.49019599
982.87048340	2.50980401
982.87048340	2.60784316
982.87457275	2.62745094
982.87872314	2.64705873
982.88287354	2.66666675
982.88287354	2.62745094
982.88690186	2.60784316
982.89099121	2.58823538
982.89514160	2.66666675
982.89929199	2.70588231
982.89929199	2.64705873
982.90332031	2.58823538
982.90740967	2.58823538
982.91149902	2.52941179
982.91149902	2.52941179
982.91564941	2.49019599
982.91967773	2.41176462
982.92376709	2.43137264
982.92779541	2.37254906
982.92779541	2.33333325
982.93200684	2.35294127
982.93609619	2.35294127
982.94012451	2.33333325
982.94012451	2.31372547
982.94421387	2.31372547
982.94836426	2.27450991
982.95251465	2.29411769
982.95648193	2.33333325
982.95648193	2.31372547
982.96069336	2.29411769
982.96478271	2.29411769
982.96887207	2.27450991
982.96887207	2.35294127
982.97290039	2.39215684
982.97711182	2.39215684
982.98120117	2.35294127
982.98522949	2.39215684
982.98522949	2.39215684
982.98925781	2.35294127
982.99340820	2.37254906
982.99749756	2.39215684
982.99749756	2.37254906
983.00164795	2.39215684
983.00573730	2.41176462
983.00970459	2.41176462
983.01385498	2.52941179
983.01800537	2.58823538
983.02209473	2.58823538
983.02624512	2.50980401
983.02624512	2.45098042
983.03021240	2.50980401
983.03442383	2.54901958
983.03851318	2.58823538
983.04260254	2.56862736
983.04663086	2.54901958
983.05072021	2.62745094
983.05487061	2.62745094
983.05487061	2.56862736
983.05889893	2.62745094
983.06311035	2.56862736
983.06713867	2.52941179
983.07122803	2.58823538
983.07537842	2.56862736
983.07934570	2.56862736
983.08349609	2.58823538
983.08349609	2.54901958
983.08758545	2.50980401
983.09173584	2.58823538
983.09588623	2.56862736
983.09985352	2.58823538
983.10394287	2.60784316
983.10809326	2.58823538
983.11218262	2.66666675
983.11218262	2.62745094
983.11621094	2.62745094
983.12036133	2.62745094
983.12445068	2.66666675
983.12445068	2.56862736
983.12860107	2.52941179
983.13262939	2.56862736
983.13671875	2.58823538
983.14080811	2.62745094
983.14080811	2.60784316
983.14508057	2.54901958
983.14910889	2.56862736
983.15319824	2.56862736
983.15319824	2.58823538
983.15728760	2.72549009
983.16143799	2.64705873
983.16558838	2.66666675
983.16961670	2.70588231
983.16961670	2.78431368
983.17364502	2.84313726
983.17773438	2.78431368
983.18194580	2.64705873
983.18194580	2.70588231
983.18585205	2.74509811
983.19012451	2.72549009
983.19415283	2.70588231
983.19824219	2.64705873
983.19824219	2.62745094
983.20239258	2.56862736
983.20635986	2.58823538
983.21044922	2.68627453
983.21044922	2.60784316
983.21459961	2.62745094
983.21875000	2.64705873
983.22271729	2.62745094
983.22686768	2.70588231
983.22686768	2.60784316
983.23101807	2.74509811
983.23516846	2.80392146
983.23925781	2.80392146
983.23925781	2.78431368
983.24322510	2.82352948
983.24737549	2.82352948
983.25152588	2.78431368
983.25561523	2.82352948
983.25561523	2.82352948
983.25952148	2.74509811
983.26379395	2.70588231
983.26788330	2.84313726
983.26788330	2.82352948
983.27197266	2.86274505
983.27612305	2.88235283
983.28015137	2.86274505
983.28424072	2.88235283
983.28424072	2.80392146
983.28839111	2.84313726
983.29248047	2.88235283
983.29650879	2.90196085
983.29650879	2.90196085
983.30065918	2.90196085
983.30480957	2.86274505
983.30889893	2.78431368
983.31298828	2.82352948
983.31298828	2.86274505
983.31713867	2.88235283
983.32116699	2.88235283
983.32525635	2.82352948
983.32525635	2.82352948
983.32916260	2.76470590
983.33331299	2.82352948
983.33746338	2.86274505
983.34161377	2.86274505
983.34161377	2.84313726
983.34582520	2.86274505
983.34979248	2.84313726
983.35388184	2.78431368
983.35388184	2.78431368
983.35803223	2.78431368
983.36218262	2.78431368
983.36621094	2.74509811
983.37023926	2.80392146
983.37438965	2.84313726
983.37854004	2.70588231
983.38262939	2.66666675
983.38262939	2.66666675
983.38659668	2.70588231
983.39074707	2.74509811
983.39489746	2.68627453
983.39904785	2.74509811
983.40319824	2.68627453
983.40716553	2.60784316
983.41131592	2.54901958
983.41131592	2.62745094
983.41540527	2.66666675
983.41943359	2.64705873
983.42346191	2.58823538
983.42761230	2.52941179
983.43182373	2.58823538
983.43591309	2.54901958
983.43988037	2.52941179
983.43988037	2.56862736
983.44403076	2.50980401
983.44812012	2.54901958
983.45220947	2.54901958
983.45623779	2.62745094
983.46038818	2.52941179
983.46447754	2.52941179
983.46862793	2.50980401
983.46862793	2.52941179
983.47271729	2.54901958
983.47680664	2.54901958
983.48095703	2.50980401
983.48498535	2.45098042
983.48913574	2.50980401
983.49310303	2.56862736
983.49731445	2.56862736
983.49731445	2.56862736
983.50128174	2.47058821
983.50549316	2.45098042
983.50964355	2.45098042
983.50964355	2.50980401
983.51354980	2.50980401
983.51776123	2.54901958
983.52185059	2.50980401
983.52600098	2.49019599
983.52600098	2.47058821
983.53021240	2.45098042
983.53417969	2.50980401
983.53826904	2.52941179
983.53826904	2.50980401
983.54241943	2.49019599
983.54638672	2.49019599
983.55053711	2.50980401
983.55462646	2.50980401
983.55462646	2.47058821
983.55871582	2.54901958
983.56274414	2.50980401
983.56689453	2.49019599
983.56689453	2.47058821
983.57098389	2.50980401
983.57513428	2.50980401
983.57928467	2.54901958
983.58325195	2.52941179
983.58325195	2.50980401
983.58740234	2.49019599
983.59155273	2.50980401
983.59564209	2.52941179
983.59564209	2.52941179
983.59960938	2.52941179
983.60375977	2.49019599
983.60791016	2.47058821
983.61199951	2.47058821
983.61199951	2.56862736
983.61608887	2.54901958
983.62005615	2.49019599
983.62420654	2.47058821
983.62420654	2.43137264
983.62835693	2.43137264
983.63250732	2.47058821
983.63647461	2.50980401
983.64056396	2.50980401
983.64056396	2.52941179
983.64477539	2.50980401
983.64886475	2.50980401
983.65307617	2.50980401
983.65307617	2.52941179
983.65716553	2.52941179
983.66113281	2.50980401
983.66528320	2.50980401
983.66943359	2.54901958
983.66943359	2.52941179
983.67340088	2.54901958
983.67749023	2.56862736
983.68170166	2.52941179
983.68170166	2.50980401
983.68572998	2.50980401
983.68975830	2.52941179
983.69390869	2.52941179
983.69799805	2.52941179
983.69799805	2.52941179
983.70220947	2.49019599
983.70617676	2.45098042
983.71026611	2.45098042
983.71026611	2.49019599
983.71441650	2.50980401
983.71856689	2.49019599
983.72265625	2.43137264
983.72680664	2.41176462
983.72680664	2.41176462
983.73077393	2.43137264
983.73492432	2.47058821
983.73901367	2.49019599
983.73901367	2.45098042
983.74310303	2.43137264
983.74713135	2.41176462
983.75128174	2.43137264
983.75537109	2.49019599
983.75946045	2.49019599
983.76354980	2.47058821
983.76770020	2.45098042
983.76770020	2.47058821
983.77178955	2.56862736
983.77593994	2.60784316
983.77990723	2.56862736
983.78417969	2.50980401
983.78814697	2.50980401
983.79229736	2.56862736
983.79644775	2.62745094
983.79644775	2.68627453
983.80041504	2.62745094
983.80456543	2.58823538
983.80865479	2.60784316
983.81274414	2.64705873
983.81671143	2.60784316
983.82092285	2.52941179
983.82501221	2.47058821
983.82501221	2.43137264
983.82910156	2.47058821
983.83312988	2.52941179
983.83721924	2.54901958
983.84136963	2.52941179
983.84552002	2.50980401
983.84948730	2.50980401
983.85357666	2.52941179
983.85357666	2.56862736
983.85772705	2.54901958
983.86187744	2.52941179
983.86602783	2.52941179
983.87011719	2.56862736
983.87408447	2.58823538
983.87823486	2.60784316
983.88244629	2.58823538
983.88244629	2.54901958
983.88635254	2.54901958
983.89050293	2.56862736
983.89465332	2.58823538
983.89465332	2.56862736
983.89874268	2.58823538
983.90289307	2.56862736
983.90686035	2.56862736
983.91113281	2.58823538
983.91113281	2.60784316
983.91510010	2.60784316
983.91931152	2.60784316
983.92327881	2.56862736
983.92327881	2.56862736
983.92736816	2.56862736
983.93151855	2.60784316
983.93566895	2.62745094
983.93981934	2.64705873
983.93981934	2.60784316
983.94372559	2.58823538
983.94787598	2.56862736
983.95202637	2.56862736
983.95202637	2.60784316
983.95617676	2.60784316
983.96014404	2.60784316
983.96429443	2.58823538
983.96844482	2.58823538
983.96844482	2.60784316
983.97253418	2.62745094
983.97650146	2.64705873
983.98065186	2.64705873
983.98065186	2.62745094
983.98480225	2.60784316
983.98889160	2.60784316
983.99285889	2.62745094
983.99719238	2.62745094
983.99719238	2.64705873
984.00115967	2.64705873
984.00524902	2.62745094
984.00939941	2.60784316
984.00939941	2.60784316
984.01342773	2.62745094
984.01751709	2.62745094
984.02160645	2.58823538
984.02575684	2.56862736
984.02575684	2.54901958
984.02972412	2.56862736
984.03387451	2.58823538
984.03796387	2.60784316
984.03796387	2.60784316
984.04211426	2.54901958
984.04626465	2.52941179
984.05029297	2.52941179
984.05438232	2.56862736
984.05438232	2.58823538
984.05847168	2.58823538
984.06262207	2.54901958
984.06677246	2.52941179
984.06677246	2.52941179
984.07073975	2.52941179
984.07482910	2.54901958
984.07897949	2.54901958
984.08312988	2.52941179
984.08312988	2.50980401
984.08709717	2.50980401
984.09118652	2.52941179
984.09533691	2.54901958
984.09533691	2.56862736
984.09954834	2.54901958
984.10351563	2.50980401
984.10766602	2.49019599
984.11175537	2.52941179
984.11584473	2.54901958
984.11987305	2.54901958
984.12414551	2.52941179
984.12414551	2.47058821
984.12811279	2.49019599
984.13226318	2.52941179
984.13635254	2.54901958
984.14031982	2.56862736
984.14447021	2.52941179
984.14862061	2.52941179
984.15270996	2.52941179
984.15270996	2.56862736
984.15673828	2.56862736
984.16082764	2.56862736
984.16503906	2.52941179
984.16918945	2.54901958
984.17309570	2.56862736
984.17724609	2.60784316
984.18139648	2.58823538
984.18139648	2.56862736
984.18542480	2.52941179
984.18963623	2.54901958
984.19360352	2.54901958
984.19769287	2.56862736
984.20184326	2.56862736
984.20599365	2.54901958
984.21008301	2.54901958
984.21008301	2.56862736
984.21405029	2.62745094
984.21826172	2.60784316
984.22241211	2.60784316
984.22656250	2.56862736
984.23052979	2.56862736
984.23461914	2.58823538
984.23883057	2.58823538
984.23883057	2.56862736
984.24285889	2.54901958
984.24688721	2.52941179
984.25115967	2.54901958
984.25115967	2.56862736
984.25518799	2.58823538
984.25921631	2.56862736
984.26324463	2.54901958
984.26739502	2.52941179
984.26739502	2.54901958
984.27154541	2.58823538
984.27563477	2.60784316
984.27978516	2.60784316
984.27978516	2.58823538
984.28381348	2.54901958
984.28790283	2.56862736
984.29205322	2.60784316
984.29614258	2.62745094
984.29614258	2.62745094
984.30017090	2.58823538
984.30426025	2.54901958
984.30834961	2.54901958
984.30834961	2.58823538
984.31250000	2.60784316
984.31646729	2.62745094
984.32067871	2.62745094
984.32476807	2.60784316
984.32476807	2.58823538
984.32885742	2.58823538
984.33294678	2.60784316
984.33715820	2.60784316
984.33715820	2.62745094
984.34118652	2.58823538
984.34527588	2.54901958
984.34936523	2.54901958
984.35357666	2.56862736
984.35357666	2.58823538
984.35754395	2.58823538
984.36169434	2.56862736
984.36572266	2.50980401
984.36572266	2.52941179
984.36981201	2.54901958
984.37384033	2.58823538
984.37799072	2.58823538
984.38214111	2.56862736
984.38214111	2.54901958
984.38623047	2.52941179
984.39025879	2.56862736
984.39434814	2.58823538
984.39434814	2.58823538
984.39849854	2.60784316
984.40258789	2.56862736
984.40661621	2.56862736
984.41070557	2.58823538
984.41070557	2.62745094
984.41491699	2.66666675
984.41900635	2.64705873
984.42303467	2.62745094
984.42303467	2.60784316
984.42706299	2.58823538
984.43121338	2.60784316
984.43536377	2.58823538
984.43951416	2.52941179
984.43951416	2.49019599
984.44348145	2.47058821
984.44763184	2.47058821
984.45172119	2.47058821
984.45172119	2.50980401
984.45587158	2.52941179
984.45983887	2.52941179
984.46417236	2.52941179
984.46820068	2.50980401
984.47229004	2.54901958
984.47625732	2.58823538
984.48046875	2.56862736
984.48046875	2.54901958
984.48455811	2.54901958
984.48864746	2.54901958
984.49273682	2.58823538
984.49676514	2.58823538
984.50091553	2.58823538
984.50500488	2.54901958
984.50909424	2.52941179
984.50909424	2.52941179
984.51312256	2.52941179
984.51721191	2.54901958
984.52136230	2.54901958
984.52545166	2.52941179
984.52960205	2.54901958
984.53356934	2.56862736
984.53771973	2.60784316
984.53771973	2.60784316
984.54187012	2.56862736
984.54595947	2.54901958
984.55010986	2.54901958
984.55413818	2.60784316
984.55822754	2.60784316
984.56231689	2.58823538
984.56652832	2.56862736
984.56652832	2.56862736
984.57049561	2.58823538
984.57458496	2.62745094
984.57867432	2.62745094
984.58282471	2.58823538
984.58685303	2.56862736
984.59112549	2.58823538
984.59509277	2.62745094
984.59509277	2.64705873
984.59924316	2.62745094
984.60321045	2.60784316
984.60729980	2.58823538
984.60729980	2.60784316
984.61151123	2.62745094
984.61553955	2.62745094
984.61968994	2.64705873
984.62371826	2.62745094
984.62371826	2.58823538
984.62786865	2.60784316
984.63195801	2.62745094
984.63610840	2.64705873
984.63610840	2.66666675
984.64007568	2.62745094
984.64422607	2.58823538
984.64837646	2.58823538
984.65252686	2.60784316
984.65252686	2.62745094
984.65667725	2.64705873
984.66064453	2.60784316
984.66473389	2.56862736
984.66473389	2.56862736
984.66888428	2.58823538
984.67303467	2.60784316
984.67712402	2.60784316
984.68109131	2.62745094
984.68109131	2.58823538
984.68530273	2.58823538
984.68933105	2.56862736
984.69348145	2.58823538
984.69348145	2.64705873
984.69763184	2.64705873
984.70153809	2.60784316
984.70581055	2.56862736
984.70983887	2.56862736
984.70983887	2.58823538
984.71380615	2.62745094
984.71801758	2.62745094
984.72210693	2.62745094
984.72210693	2.56862736
984.72619629	2.58823538
984.73016357	2.58823538
984.73437500	2.58823538
984.73852539	2.62745094
984.73852539	2.60784316
984.74261475	2.60784316
984.74658203	2.56862736
984.75079346	2.58823538
984.75079346	2.60784316
984.75488281	2.64705873
984.75897217	2.64705873
984.76300049	2.62745094
984.76708984	2.56862736
984.76708984	2.56862736
984.77124023	2.62745094
984.77532959	2.62745094
984.77947998	2.64705873
984.77947998	2.62745094
984.78350830	2.60784316
984.78765869	2.58823538
984.79174805	2.62745094
984.79589844	2.62745094
984.79589844	2.66666675
984.79992676	2.62745094
984.80413818	2.62745094
984.80816650	2.58823538
984.80816650	2.58823538
984.81225586	2.58823538
984.81634521	2.62745094
984.82037354	2.62745094
984.82452393	2.58823538
984.82861328	2.58823538
984.83276367	2.58823538
984.83685303	2.62745094
984.83685303	2.62745094
984.84088135	2.60784316
984.84503174	2.60784316
984.84912109	2.56862736
984.85327148	2.60784316
984.85729980	2.62745094
984.86138916	2.60784316
984.86547852	2.58823538
984.86547852	2.56862736
984.86968994	2.58823538
984.87359619	2.60784316
984.87774658	2.62745094
984.88189697	2.56862736
984.88598633	2.54901958
984.89007568	2.54901958
984.89410400	2.58823538
984.89410400	2.60784316
984.89825439	2.62745094
984.90234375	2.62745094
984.90655518	2.58823538
984.91052246	2.62745094
984.91473389	2.62745094
984.91882324	2.64705873
984.92291260	2.60784316
984.92291260	2.58823538
984.92687988	2.58823538
984.93115234	2.60784316
984.93511963	2.62745094
984.93927002	2.64705873
984.94335938	2.62745094
984.94732666	2.58823538
984.95153809	2.58823538
984.95153809	2.60784316
984.95568848	2.62745094
984.95971680	2.64705873
984.96362305	2.62745094
984.96362305	2.60784316
984.96783447	2.60784316
984.97198486	2.62745094
984.97607422	2.64705873
984.98016357	2.64705873
984.98016357	2.62745094
984.98419189	2.60784316
984.98834229	2.56862736
984.99249268	2.58823538
984.99249268	2.60784316
984.99645996	2.62745094
985.00061035	2.60784316
985.00476074	2.58823538
985.00891113	2.56862736
985.00891113	2.56862736
985.01300049	2.58823538
985.01708984	2.58823538
985.02111816	2.58823538
985.02111816	2.56862736
985.02526855	2.52941179
985.02935791	2.54901958
985.03326416	2.56862736
985.03747559	2.58823538
985.03747559	2.58823538
985.04156494	2.58823538
985.04565430	2.54901958
985.04986572	2.54901958
985.04986572	2.56862736
985.05383301	2.60784316
985.05810547	2.60784316
985.06207275	2.58823538
985.06628418	2.58823538
985.06628418	2.58823538
985.07031250	2.58823538
985.07434082	2.64705873
985.07849121	2.66666675
985.07849121	2.64705873
985.08264160	2.64705873
985.08673096	2.62745094
985.09075928	2.64705873
985.09484863	2.66666675
985.09484863	2.68627453
985.09906006	2.68627453
985.10308838	2.68627453
985.10717773	2.64705873
985.10717773	2.58823538
985.11126709	2.56862736
985.11535645	2.56862736
985.11950684	2.54901958
985.12365723	2.52941179
985.12365723	2.50980401
985.12762451	2.52941179
985.13171387	2.56862736
985.13592529	2.58823538
985.13592529	2.58823538
985.14001465	2.56862736
985.14410400	2.54901958
985.14813232	2.52941179
985.15222168	2.54901958
985.15222168	2.56862736
985.15637207	2.60784316
985.16033936	2.60784316
985.16442871	2.56862736
985.16442871	2.56862736
985.16857910	2.56862736
985.17272949	2.60784316
985.17681885	2.60784316
985.18090820	2.60784316
985.18505859	2.58823538
985.18908691	2.56862736
985.19323730	2.56862736
985.19323730	2.60784316
985.19720459	2.62745094
985.20141602	2.62745094
985.20544434	2.58823538
985.20959473	2.60784316
985.21362305	2.62745094
985.21777344	2.62745094
985.22186279	2.62745094
985.22186279	2.60784316
985.22595215	2.58823538
985.23010254	2.62745094
985.23406982	2.62745094
985.23822021	2.66666675
985.24230957	2.62745094
985.24645996	2.62745094
985.25048828	2.60784316
985.25048828	2.64705873
985.25463867	2.66666675
985.25872803	2.66666675
985.26281738	2.66666675
985.26678467	2.64705873
985.27105713	2.64705873
985.27508545	2.66666675
985.27917480	2.64705873
985.27917480	2.62745094
985.28338623	2.60784316
985.28735352	2.58823538
985.29144287	2.62745094
985.29559326	2.66666675
985.29974365	2.64705873
985.30364990	2.60784316
985.30780029	2.56862736
985.30780029	2.56862736
985.31188965	2.62745094
985.31610107	2.62745094
985.32019043	2.62745094
985.32019043	2.60784316
985.32421875	2.54901958
985.32836914	2.54901958
985.33245850	2.56862736
985.33660889	2.56862736
985.33660889	2.58823538
985.34057617	2.54901958
985.34472656	2.50980401
985.34881592	2.50980401
985.34881592	2.52941179
985.35296631	2.56862736
985.35711670	2.54901958
985.36108398	2.54901958
985.36529541	2.50980401
985.36529541	2.50980401
985.36938477	2.50980401
985.37347412	2.52941179
985.37750244	2.54901958
985.37750244	2.56862736
985.38159180	2.52941179
985.38580322	2.50980401
985.38977051	2.50980401
985.39398193	2.50980401
985.39398193	2.56862736
985.39807129	2.56862736
985.40209961	2.56862736
985.40618896	2.52941179
985.40618896	2.52941179
985.41021729	2.52941179
985.41430664	2.54901958
985.41851807	2.54901958
985.42266846	2.56862736
985.42266846	2.52941179
985.42663574	2.52941179
985.43078613	2.50980401
985.43487549	2.56862736
985.43487549	2.56862736
985.43902588	2.56862736
985.44311523	2.52941179
985.44708252	2.50980401
985.45123291	2.49019599
985.45123291	2.52941179
985.45538330	2.54901958
985.45947266	2.56862736
985.46356201	2.54901958
985.46356201	2.52941179
985.46765137	2.54901958
985.47174072	2.54901958
985.47589111	2.56862736
985.48004150	2.60784316
985.48004150	2.58823538
985.48419189	2.54901958
985.48815918	2.54901958
985.49230957	2.58823538
985.49230957	2.60784316
985.49639893	2.60784316
985.50036621	2.60784316
985.50451660	2.56862736
985.50866699	2.54901958
985.50866699	2.54901958
985.51275635	2.56862736
985.51684570	2.56862736
985.52081299	2.58823538
985.52081299	2.52941179
985.52502441	2.52941179
985.52911377	2.50980401
985.53326416	2.54901958
985.53717041	2.56862736
985.53717041	2.56862736
985.54132080	2.52941179
985.54547119	2.52941179
985.54962158	2.47058821
985.54962158	2.54901958
985.55358887	2.54901958
985.55767822	2.58823538
985.56182861	2.58823538
985.56610107	2.54901958
985.57012939	2.56862736
985.57409668	2.56862736
985.57824707	2.58823538
985.57824707	2.58823538
985.58233643	2.54901958
985.58654785	2.52941179
985.59045410	2.52941179
985.59460449	2.54901958
985.59875488	2.56862736
985.60278320	2.54901958
985.60699463	2.50980401
985.60699463	2.50980401
985.61108398	2.54901958
985.61511230	2.56862736
985.61920166	2.58823538
985.62335205	2.52941179
985.62731934	2.52941179
985.63146973	2.54901958
985.63562012	2.58823538
985.63562012	2.58823538
985.63977051	2.58823538
985.64373779	2.56862736
985.64782715	2.54901958
985.65197754	2.58823538
985.65612793	2.58823538
985.66027832	2.58823538
985.66418457	2.56862736
985.66418457	2.56862736
985.66833496	2.54901958
985.67248535	2.56862736
985.67657471	2.58823538
985.67657471	2.60784316
985.68060303	2.58823538
985.68475342	2.54901958
985.68884277	2.54901958
985.69299316	2.56862736
985.69299316	2.60784316
985.69702148	2.60784316
985.70104980	2.58823538
985.70513916	2.54901958
985.70513916	2.54901958
985.70928955	2.58823538
985.71343994	2.58823538
985.71746826	2.60784316
985.72155762	2.60784316
985.72155762	2.56862736
985.72576904	2.52941179
985.72991943	2.54901958
985.73406982	2.58823538
985.73406982	2.60784316
985.73815918	2.60784316
985.74212646	2.56862736
985.74627686	2.50980401
985.75036621	2.50980401
985.75036621	2.54901958
985.75439453	2.54901958
985.75854492	2.54901958
985.76263428	2.52941179
985.76263428	2.52941179
985.76678467	2.49019599
985.77075195	2.52941179
985.77490234	2.54901958
985.77899170	2.58823538
985.77899170	2.56862736
985.78308105	2.56862736
985.78717041	2.54901958
985.79125977	2.58823538
985.79125977	2.56862736
985.79534912	2.60784316
985.79949951	2.62745094
985.80346680	2.64705873
985.80761719	2.62745094
985.80761719	2.64705873
985.81170654	2.62745094
985.81585693	2.66666675
985.81994629	2.64705873
985.81994629	2.64705873
985.82403564	2.60784316
985.82800293	2.56862736
985.83221436	2.54901958
985.83630371	2.52941179
985.83630371	2.49019599
985.84033203	2.49019599
985.84448242	2.47058821
985.84857178	2.49019599
985.84857178	2.49019599
985.85272217	2.52941179
985.85687256	2.56862736
985.86083984	2.56862736
985.86505127	2.52941179
985.86505127	2.49019599
985.86914063	2.50980401
985.87329102	2.54901958
985.87738037	2.56862736
985.87738037	2.56862736
985.88140869	2.54901958
985.88549805	2.52941179
985.88964844	2.52941179
985.89373779	2.54901958
985.89373779	2.58823538
985.89770508	2.58823538
985.90185547	2.58823538
985.90600586	2.54901958
985.90600586	2.52941179
985.91009521	2.54901958
985.91406250	2.56862736
985.91827393	2.58823538
985.92236328	2.54901958
985.92651367	2.54901958
985.93048096	2.56862736
985.93463135	2.60784316
985.93463135	2.62745094
985.93878174	2.62745094
985.94287109	2.60784316
985.94702148	2.56862736
985.95111084	2.60784316
985.95507813	2.62745094
985.95928955	2.64705873
985.96331787	2.62745094
985.96331787	2.62745094
985.96734619	2.60784316
985.97149658	2.62745094
985.97564697	2.62745094
985.97973633	2.62745094
985.98376465	2.64705873
985.98785400	2.60784316
985.99206543	2.64705873
985.99206543	2.64705873
985.99609375	2.66666675
986.00012207	2.64705873
986.00427246	2.64705873
986.00830078	2.62745094
986.01239014	2.62745094
986.01660156	2.64705873
986.02062988	2.66666675
986.02062988	2.62745094
986.02471924	2.60784316
986.02880859	2.58823538
986.03295898	2.60784316
986.03710938	2.64705873
986.04107666	2.60784316
986.04522705	2.58823538
986.04931641	2.54901958
986.04931641	2.58823538
986.05352783	2.56862736
986.05749512	2.62745094
986.06164551	2.58823538
986.06164551	2.56862736
986.06573486	2.52941179
986.06988525	2.54901958
986.07391357	2.56862736
986.07806396	2.58823538
986.07806396	2.60784316
986.08209229	2.54901958
986.08624268	2.50980401
986.09039307	2.50980401
986.09039307	2.56862736
986.09436035	2.56862736
986.09851074	2.58823538
986.10260010	2.56862736
986.10675049	2.54901958
986.10675049	2.52941179
986.11077881	2.54901958
986.11486816	2.54901958
986.11914063	2.58823538
986.11914063	2.58823538
986.12310791	2.54901958
986.12713623	2.54901958
986.13122559	2.56862736
986.13537598	2.58823538
986.13537598	2.62745094
986.13952637	2.62745094
986.14361572	2.56862736
986.14758301	2.56862736
986.14758301	2.54901958
986.15173340	2.56862736
986.15588379	2.58823538
986.15997314	2.60784316
986.16406250	2.60784316
986.16406250	2.56862736
986.16802979	2.56862736
986.17218018	2.58823538
986.17633057	2.60784316
986.17633057	2.62745094
986.18029785	2.60784316
986.18444824	2.56862736
986.18859863	2.52941179
986.19268799	2.56862736
986.19268799	2.60784316
986.19683838	2.62745094
986.20080566	2.60784316
986.20513916	2.54901958
986.20513916	2.52941179
986.20910645	2.52941179
986.21325684	2.58823538
986.21722412	2.60784316
986.22131348	2.60784316
986.22131348	2.56862736
986.22552490	2.54901958
986.22961426	2.54901958
986.23370361	2.54901958
986.23370361	2.56862736
986.23767090	2.56862736
986.24182129	2.56862736
986.24597168	2.52941179
986.25012207	2.50980401
986.25012207	2.52941179
986.25408936	2.56862736
986.25817871	2.58823538
986.26232910	2.56862736
986.26232910	2.54901958
986.26647949	2.52941179
986.27050781	2.52941179
986.27465820	2.52941179
986.27874756	2.54901958
986.27874756	2.52941179
986.28277588	2.50980401
986.28698730	2.49019599
986.29101563	2.50980401
986.29101563	2.52941179
986.29510498	2.54901958
986.29919434	2.54901958
986.30334473	2.52941179
986.30743408	2.49019599
986.31140137	2.52941179
986.31555176	2.54901958
986.31970215	2.56862736
986.31970215	2.54901958
986.32373047	2.50980401
986.32788086	2.47058821
986.33209229	2.50980401
986.33605957	2.58823538
986.34027100	2.54901958
986.34423828	2.49019599
986.34838867	2.47058821
986.34838867	2.50980401
986.35235596	2.52941179
986.35656738	2.52941179
986.36071777	2.56862736
986.36468506	2.54901958
986.36883545	2.54901958
986.37298584	2.56862736
986.37707520	2.58823538
986.37707520	2.58823538
986.38104248	2.58823538
986.38525391	2.56862736
986.38940430	2.54901958
986.39349365	2.58823538
986.39746094	2.60784316
986.40161133	2.58823538
986.40563965	2.54901958
986.40563965	2.52941179
986.40972900	2.54901958
986.41387939	2.58823538
986.41809082	2.60784316
986.41809082	2.58823538
986.42205811	2.56862736
986.42620850	2.54901958
986.43029785	2.56862736
986.43432617	2.56862736
986.43432617	2.54901958
986.43853760	2.58823538
986.44262695	2.56862736
986.44677734	2.54901958
986.44677734	2.54901958
986.45074463	2.58823538
986.45483398	2.58823538
986.45904541	2.58823538
986.46307373	2.52941179
986.46307373	2.52941179
986.46710205	2.52941179
986.47125244	2.52941179
986.47540283	2.56862736
986.47540283	2.58823538
986.47943115	2.58823538
986.48358154	2.56862736
986.48760986	2.54901958
986.49176025	2.54901958
986.49176025	2.54901958
986.49591064	2.58823538
986.50000000	2.56862736
986.50415039	2.50980401
986.50415039	2.49019599
986.50811768	2.49019599
986.51220703	2.52941179
986.51635742	2.52941179
986.52044678	2.54901958
986.52044678	2.54901958
986.52447510	2.52941179
986.52862549	2.50980401
986.53271484	2.50980401
986.53271484	2.54901958
986.53674316	2.56862736
986.54083252	2.58823538
986.54510498	2.52941179
986.54907227	2.50980401
986.54907227	2.52941179
986.55322266	2.56862736
986.55731201	2.58823538
986.56134033	2.58823538
986.56134033	2.56862736
986.56542969	2.58823538
986.56964111	2.60784316
986.57373047	2.64705873
986.57769775	2.66666675
986.57769775	2.66666675
986.58184814	2.66666675
986.58599854	2.66666675
986.59002686	2.64705873
986.59002686	2.66666675
986.59399414	2.68627453
986.59826660	2.70588231
986.60229492	2.66666675
986.60644531	2.60784316
986.60644531	2.52941179
986.61047363	2.50980401
986.61456299	2.52941179
986.61865234	2.54901958
986.61865234	2.56862736
986.62286377	2.50980401
986.62701416	2.49019599
986.63116455	2.50980401
986.63513184	2.54901958
986.63513184	2.58823538
986.63922119	2.58823538
986.64337158	2.58823538
986.64746094	2.54901958
986.64746094	2.54901958
986.65142822	2.54901958
986.65563965	2.56862736
986.65972900	2.58823538
986.66381836	2.52941179
986.66784668	2.50980401
986.67211914	2.52941179
986.67614746	2.56862736
986.67614746	2.58823538
986.68023682	2.58823538
986.68426514	2.56862736
986.68835449	2.52941179
986.69250488	2.56862736
986.69665527	2.58823538
986.70062256	2.58823538
986.70477295	2.56862736
986.70477295	2.54901958
986.70886230	2.54901958
986.71301270	2.58823538
986.71710205	2.58823538
986.72106934	2.58823538
986.72521973	2.56862736
986.72937012	2.56862736
986.73345947	2.56862736
986.73345947	2.60784316
986.73736572	2.60784316
986.74157715	2.56862736
986.74572754	2.56862736
986.74981689	2.58823538
986.75396729	2.60784316
986.75805664	2.62745094
986.76202393	2.62745094
986.76202393	2.58823538
986.76623535	2.58823538
986.77038574	2.58823538
986.77453613	2.62745094
986.77453613	2.66666675
986.77850342	2.64705873
986.78259277	2.62745094
986.78674316	2.60784316
986.79083252	2.60784316
986.79083252	2.62745094
986.79486084	2.66666675
986.79901123	2.64705873
986.80316162	2.62745094
986.80316162	2.58823538
986.80718994	2.56862736
986.81121826	2.58823538
986.81536865	2.60784316
986.81945801	2.62745094
986.81945801	2.60784316
986.82354736	2.58823538
986.82751465	2.54901958
986.83166504	2.52941179
986.83166504	2.56862736
986.83581543	2.58823538
986.83990479	2.60784316
986.84405518	2.56862736
986.84808350	2.54901958
986.84808350	2.52941179
986.85223389	2.54901958
986.85632324	2.56862736
986.86047363	2.56862736
986.86047363	2.52941179
986.86437988	2.52941179
986.86865234	2.52941179
986.87274170	2.56862736
986.87689209	2.56862736
986.87689209	2.60784316
986.88085938	2.58823538
986.88513184	2.56862736
986.88909912	2.52941179
986.88909912	2.56862736
986.89324951	2.56862736
986.89733887	2.60784316
986.90130615	2.62745094
986.90551758	2.58823538
986.90551758	2.54901958
986.90960693	2.54901958
986.91369629	2.56862736
986.91790771	2.60784316
986.91790771	2.62745094
986.92181396	2.58823538
986.92596436	2.56862736
986.93011475	2.56862736
986.93420410	2.58823538
986.93420410	2.58823538
986.93817139	2.58823538
986.94232178	2.58823538
986.94641113	2.56862736
986.94641113	2.56862736
986.95056152	2.58823538
986.95465088	2.60784316
986.95880127	2.60784316
986.96282959	2.62745094
986.96282959	2.58823538
986.96697998	2.54901958
986.97106934	2.58823538
986.97515869	2.60784316
986.97515869	2.60784316
986.97918701	2.58823538
986.98333740	2.58823538
986.98742676	2.56862736
986.99145508	2.54901958
986.99145508	2.56862736
986.99554443	2.58823538
986.99969482	2.58823538
987.00384521	2.56862736
987.00384521	2.54901958
987.00787354	2.52941179
987.01214600	2.54901958
987.01611328	2.54901958
987.02020264	2.54901958
987.02416992	2.52941179
987.02832031	2.50980401
987.03247070	2.52941179
987.03247070	2.54901958
987.03656006	2.56862736
987.04071045	2.56862736
987.04467773	2.52941179
987.04882813	2.50980401
987.05285645	2.50980401
987.05706787	2.52941179
987.06121826	2.56862736
987.06121826	2.54901958
987.06518555	2.49019599
987.06933594	2.50980401
987.07348633	2.54901958
987.07763672	2.56862736
987.08160400	2.54901958
987.08569336	2.50980401
987.08990479	2.50980401
987.08990479	2.50980401
987.09393311	2.52941179
987.09808350	2.54901958
987.10211182	2.54901958
987.10626221	2.47058821
987.11035156	2.50980401
987.11431885	2.54901958
987.11840820	2.54901958
987.11840820	2.54901958
987.12255859	2.54901958
987.12670898	2.49019599
987.13079834	2.47058821
987.13482666	2.50980401
987.13897705	2.52941179
987.14312744	2.52941179
987.14727783	2.50980401
987.14727783	2.49019599
987.15118408	2.50980401
987.15533447	2.52941179
987.15948486	2.54901958
987.15948486	2.52941179
987.16357422	2.50980401
987.16760254	2.50980401
987.17169189	2.52941179
987.17578125	2.52941179
987.17578125	2.54901958
987.17993164	2.54901958
987.18414307	2.50980401
987.18811035	2.49019599
987.18811035	2.50980401
987.19226074	2.52941179
987.19641113	2.54901958
987.20050049	2.54901958
987.20465088	2.49019599
987.20465088	2.49019599
987.20861816	2.47058821
987.21276855	2.50980401
987.21685791	2.54901958
987.21685791	2.50980401
987.22082520	2.54901958
987.22503662	2.52941179
987.22918701	2.50980401
987.23321533	2.52941179
987.23321533	2.54901958
987.23730469	2.56862736
987.24139404	2.54901958
987.24548340	2.52941179
987.24548340	2.50980401
987.24963379	2.50980401
987.25366211	2.52941179
987.25762939	2.56862736
987.26177979	2.54901958
987.26177979	2.50980401
987.26593018	2.47058821
987.27001953	2.47058821
987.27416992	2.49019599
987.27416992	2.52941179
987.27807617	2.50980401
987.28228760	2.47058821
987.28637695	2.47058821
987.29058838	2.43137264
987.29058838	2.45098042
987.29449463	2.47058821
987.29870605	2.49019599
987.30273438	2.50980401
987.30273438	2.45098042
987.30688477	2.43137264
987.31103516	2.47058821
987.31506348	2.50980401
987.31915283	2.56862736
987.31915283	2.54901958
987.32330322	2.52941179
987.32745361	2.52941179
987.33142090	2.54901958
987.33142090	2.56862736
987.33557129	2.60784316
987.33966064	2.64705873
987.34375000	2.60784316
987.34790039	2.54901958
987.34790039	2.58823538
987.35198975	2.58823538
987.35607910	2.60784316
987.36016846	2.58823538
987.36016846	2.52941179
987.36431885	2.47058821
987.36828613	2.43137264
987.37249756	2.41176462
987.37664795	2.45098042
987.38073730	2.49019599
987.38482666	2.49019599
987.38885498	2.49019599
987.38885498	2.47058821
987.39300537	2.50980401
987.39709473	2.54901958
987.40112305	2.56862736
987.40521240	2.50980401
987.40936279	2.50980401
987.41357422	2.52941179
987.41760254	2.54901958
987.41760254	2.56862736
987.42156982	2.54901958
987.42572021	2.50980401
987.42980957	2.50980401
987.43395996	2.56862736
987.43804932	2.60784316
987.44201660	2.56862736
987.44622803	2.54901958
987.44622803	2.54901958
987.45037842	2.54901958
987.45434570	2.58823538
987.45849609	2.62745094
987.46258545	2.58823538
987.46679688	2.56862736
987.47088623	2.56862736
987.47485352	2.60784316
987.47485352	2.62745094
987.47900391	2.56862736
987.48309326	2.56862736
987.48718262	2.60784316
987.49127197	2.68627453
987.49530029	2.72549009
987.49945068	2.72549009
987.50366211	2.70588231
987.50366211	2.66666675
987.50762939	2.64705873
987.51171875	2.66666675
987.51586914	2.66666675
987.51586914	2.68627453
987.52001953	2.70588231
987.52410889	2.64705873
987.52813721	2.58823538
987.53222656	2.60784316
987.53222656	2.62745094
987.53631592	2.64705873
987.54046631	2.64705873
987.54461670	2.64705873
987.54461670	2.60784316
987.54858398	2.56862736
987.55267334	2.56862736
987.55682373	2.58823538
987.56097412	2.62745094
987.56097412	2.60784316
987.56506348	2.54901958
987.56909180	2.50980401
987.57318115	2.52941179
987.57318115	2.54901958
987.57733154	2.56862736
987.58129883	2.58823538
987.58544922	2.54901958
987.58959961	2.54901958
987.58959961	2.54901958
987.59375000	2.54901958
987.59771729	2.56862736
987.60180664	2.58823538
987.60180664	2.54901958
987.60595703	2.49019599
987.60998535	2.52941179
987.61419678	2.52941179
987.61816406	2.56862736
987.61816406	2.56862736
987.62231445	2.52941179
987.62640381	2.52941179
987.63055420	2.50980401
987.63055420	2.52941179
987.63458252	2.54901958
987.63873291	2.56862736
987.64288330	2.56862736
987.64697266	2.54901958
987.64697266	2.54901958
987.65112305	2.56862736
987.65509033	2.56862736
987.65917969	2.58823538
987.65917969	2.58823538
987.66339111	2.54901958
987.66748047	2.50980401
987.67144775	2.50980401
987.67559814	2.52941179
987.67559814	2.56862736
987.67974854	2.56862736
987.68383789	2.52941179
987.68792725	2.52941179
987.68792725	2.50980401
987.69213867	2.54901958
987.69610596	2.54901958
987.70031738	2.56862736
987.70440674	2.54901958
987.70440674	2.54901958
987.70837402	2.52941179
987.71246338	2.52941179
987.71667480	2.56862736
987.71667480	2.56862736
987.72070313	2.58823538
987.72460938	2.56862736
987.72882080	2.54901958
987.73297119	2.54901958
987.73297119	2.56862736
987.73706055	2.60784316
987.74108887	2.58823538
987.74517822	2.56862736
987.74517822	2.56862736
987.74932861	2.56862736
987.75341797	2.58823538
987.75756836	2.58823538
987.76153564	2.56862736
987.76568604	2.52941179
987.76977539	2.50980401
987.77392578	2.52941179
987.77392578	2.54901958
987.77801514	2.54901958
987.78204346	2.54901958
987.78607178	2.52941179
987.79028320	2.56862736
987.79443359	2.54901958
987.79846191	2.58823538
987.80255127	2.58823538
987.80255127	2.56862736
987.80670166	2.56862736
987.81079102	2.56862736
987.81481934	2.54901958
987.81903076	2.58823538
987.82305908	2.58823538
987.82727051	2.56862736
987.83135986	2.54901958
987.83135986	2.58823538
987.83532715	2.60784316
987.83947754	2.60784316
987.84362793	2.58823538
987.84777832	2.50980401
987.85168457	2.54901958
987.85583496	2.56862736
987.86004639	2.56862736
987.86004639	2.54901958
987.86407471	2.54901958
987.86804199	2.52941179
987.87219238	2.54901958
987.87640381	2.60784316
987.88049316	2.62745094
987.88452148	2.56862736
987.88861084	2.52941179
987.88861084	2.50980401
987.89276123	2.52941179
987.89685059	2.56862736
987.90100098	2.54901958
987.90100098	2.56862736
987.90515137	2.50980401
987.90911865	2.52941179
987.91326904	2.50980401
987.91735840	2.54901958
987.91735840	2.60784316
987.92132568	2.56862736
987.92541504	2.52941179
987.92962646	2.52941179
987.92962646	2.54901958
987.93371582	2.58823538
987.93780518	2.60784316
987.94177246	2.60784316
987.94604492	2.60784316
987.94604492	2.56862736
987.95007324	2.56862736
987.95416260	2.58823538
987.95831299	2.62745094
987.95831299	2.64705873
987.96228027	2.60784316
987.96643066	2.58823538
987.97058105	2.56862736
987.97473145	2.56862736
987.97473145	2.58823538
987.97875977	2.58823538
987.98278809	2.56862736
987.98693848	2.52941179
987.98693848	2.52941179
987.99108887	2.54901958
987.99511719	2.56862736
987.99920654	2.60784316
988.00329590	2.60784316
988.00329590	2.56862736
988.00744629	2.56862736
988.01141357	2.56862736
988.01556396	2.64705873
988.01556396	2.62745094
988.01971436	2.62745094
988.02386475	2.60784316
988.02783203	2.54901958
988.03216553	2.52941179
988.03216553	2.54901958
988.03607178	2.56862736
988.04016113	2.56862736
988.04437256	2.56862736
988.04437256	2.52941179
988.04833984	2.54901958
988.05242920	2.54901958
988.05657959	2.56862736
988.06066895	2.60784316
988.06066895	2.60784316
988.06469727	2.58823538
988.06878662	2.54901958
988.07305908	2.56862736
988.07305908	2.58823538
988.07708740	2.60784316
988.08099365	2.58823538
988.08514404	2.60784316
988.08935547	2.58823538
988.08935547	2.60784316
988.09344482	2.66666675
988.09759521	2.70588231
988.10156250	2.70588231
988.10156250	2.62745094
988.10571289	2.62745094
988.10986328	2.64705873
988.11389160	2.66666675
988.11810303	2.66666675
988.12213135	2.64705873
988.12628174	2.60784316
988.13031006	2.58823538
988.13031006	2.52941179
988.13452148	2.54901958
988.13848877	2.52941179
988.14263916	2.54901958
988.14672852	2.52941179
988.15087891	2.54901958
988.15484619	2.56862736
988.15905762	2.62745094
988.15905762	2.60784316
988.16308594	2.56862736
988.16723633	2.52941179
988.17126465	2.54901958
988.17535400	2.62745094
988.17944336	2.60784316
988.18359375	2.58823538
988.18762207	2.56862736
988.18762207	2.52941179
988.19165039	2.54901958
988.19580078	2.60784316
988.19995117	2.60784316
988.20404053	2.56862736
988.20806885	2.56862736
988.21221924	2.58823538
988.21636963	2.60784316
988.21636963	2.62745094
988.22045898	2.62745094
988.22454834	2.60784316
988.22863770	2.60784316
988.23272705	2.64705873
988.23681641	2.66666675
988.24084473	2.66666675
988.24505615	2.64705873
988.24505615	2.60784316
988.24908447	2.60784316
988.25317383	2.64705873
988.25732422	2.68627453
988.25732422	2.72549009
988.26129150	2.70588231
988.26544189	2.66666675
988.26953125	2.64705873
988.27374268	2.62745094
988.27374268	2.66666675
988.27789307	2.68627453
988.28186035	2.68627453
988.28607178	2.66666675
988.28607178	2.58823538
988.29010010	2.60784316
988.29412842	2.64705873
988.29809570	2.68627453
988.30230713	2.70588231
988.30230713	2.68627453
988.30639648	2.64705873
988.31054688	2.68627453
988.31463623	2.74509811
988.31463623	2.74509811
988.31866455	2.72549009
988.32281494	2.70588231
988.32702637	2.68627453
988.33111572	2.70588231
988.33111572	2.76470590
988.33508301	2.76470590
988.33923340	2.74509811
988.34338379	2.74509811
988.34338379	2.70588231
988.34747314	2.66666675
988.35144043	2.66666675
988.35552979	2.68627453
988.35974121	2.70588231
988.35974121	2.66666675
988.36383057	2.62745094
988.36779785	2.60784316
988.37207031	2.62745094
988.37207031	2.64705873
988.37609863	2.66666675
988.38018799	2.64705873
988.38439941	2.62745094
988.38848877	2.60784316
988.38848877	2.58823538
988.39251709	2.58823538
988.39660645	2.60784316
988.40075684	2.64705873
988.40075684	2.62745094
988.40472412	2.62745094
988.40887451	2.62745094
988.41296387	2.60784316
988.41711426	2.62745094
988.41711426	2.62745094
988.42120361	2.60784316
988.42523193	2.56862736
988.42932129	2.56862736
988.42932129	2.54901958
988.43347168	2.56862736
988.43756104	2.58823538
988.44158936	2.56862736
988.44573975	2.52941179
988.44573975	2.50980401
988.44982910	2.52941179
988.45397949	2.52941179
988.45812988	2.56862736
988.45812988	2.56862736
988.46209717	2.52941179
988.46624756	2.50980401
988.47039795	2.52941179
988.47448730	2.52941179
988.47448730	2.50980401
988.47851563	2.52941179
988.48260498	2.50980401
988.48669434	2.54901958
988.48669434	2.60784316
988.49084473	2.62745094
988.49481201	2.58823538
988.49908447	2.58823538
988.50305176	2.56862736
988.50720215	2.56862736
988.51129150	2.66666675
988.51531982	2.68627453
988.51531982	2.66666675
988.51940918	2.68627453
988.52355957	2.74509811
988.52770996	2.68627453
988.53167725	2.47058821
988.53582764	2.50980401
988.53991699	2.58823538
988.54412842	2.56862736
988.54412842	2.54901958
988.54815674	2.56862736
988.55218506	2.56862736
988.55627441	2.58823538
988.56048584	2.60784316
988.56463623	2.56862736
988.56854248	2.58823538
988.57257080	2.58823538
988.57257080	2.58823538
988.57678223	2.58823538
988.58093262	2.60784316
988.58508301	2.58823538
988.58905029	2.54901958
988.59313965	2.56862736
988.59735107	2.58823538
988.60150146	2.60784316
988.60150146	2.58823538
988.60546875	2.54901958
988.60961914	2.58823538
988.61370850	2.58823538
988.61785889	2.56862736
988.62182617	2.54901958
988.62603760	2.52941179
988.63012695	2.52941179
988.63012695	2.52941179
988.63421631	2.54901958
988.63818359	2.52941179
988.64233398	2.50980401
988.64233398	2.49019599
988.64648438	2.47058821
988.65063477	2.52941179
988.65472412	2.54901958
988.65875244	2.58823538
988.65875244	2.58823538
988.66284180	2.54901958
988.66699219	2.50980401
988.67114258	2.47058821
988.67114258	2.47058821
988.67510986	2.50980401
988.67926025	2.50980401
988.68334961	2.50980401
988.68743896	2.47058821
988.68743896	2.49019599
988.69140625	2.50980401
988.69561768	2.50980401
988.69970703	2.52941179
988.69970703	2.50980401
988.70379639	2.50980401
988.70800781	2.47058821
988.71209717	2.50980401
988.71606445	2.54901958
988.71606445	2.52941179
988.72021484	2.54901958
988.72436523	2.50980401
988.72845459	2.50980401
988.72845459	2.50980401
988.73248291	2.54901958
988.73657227	2.56862736
988.74066162	2.56862736
988.74487305	2.54901958
988.74487305	2.49019599
988.74884033	2.50980401
988.75292969	2.52941179
988.75701904	2.56862736
988.75701904	2.56862736
988.76116943	2.52941179
988.76519775	2.54901958
988.76928711	2.52941179
988.77343750	2.54901958
988.77343750	2.56862736
988.77752686	2.56862736
988.78155518	2.58823538
988.78564453	2.54901958
988.78564453	2.52941179
988.78985596	2.52941179
988.79394531	2.54901958
988.79809570	2.54901958
988.80206299	2.56862736
988.80206299	2.52941179
988.80615234	2.49019599
988.81036377	2.50980401
988.81439209	2.50980401
988.81439209	2.56862736
988.81842041	2.54901958
988.82257080	2.54901958
988.82666016	2.50980401
988.83081055	2.50980401
988.83081055	2.52941179
988.83483887	2.54901958
988.83905029	2.56862736
988.84307861	2.56862736
988.84307861	2.56862736
988.84722900	2.52941179
988.85137939	2.54901958
988.85534668	2.58823538
988.85949707	2.64705873
988.86370850	2.64705873
988.86773682	2.62745094
988.87182617	2.60784316
988.87182617	2.64705873
988.87579346	2.64705873
988.88000488	2.64705873
988.88409424	2.60784316
988.88818359	2.47058821
988.89221191	2.47058821
988.89630127	2.47058821
988.90045166	2.49019599
988.90045166	2.45098042
988.90454102	2.45098042
988.90856934	2.45098042
988.91265869	2.47058821
988.91680908	2.54901958
988.92083740	2.52941179
988.92504883	2.52941179
988.92895508	2.50980401
988.92895508	2.52941179
988.93316650	2.54901958
988.93731689	2.54901958
988.94140625	2.54901958
988.94543457	2.49019599
988.94952393	2.50980401
988.95367432	2.52941179
988.95782471	2.54901958
988.95782471	2.54901958
988.96185303	2.54901958
988.96606445	2.50980401
988.97009277	2.49019599
988.97424316	2.56862736
988.97839355	2.56862736
988.98236084	2.56862736
988.98645020	2.52941179
988.98645020	2.52941179
988.99053955	2.54901958
988.99475098	2.56862736
988.99884033	2.58823538
988.99884033	2.62745094
989.00280762	2.60784316
989.00695801	2.56862736
989.01104736	2.56862736
989.01519775	2.60784316
989.01519775	2.62745094
989.01922607	2.62745094
989.02337646	2.60784316
989.02746582	2.56862736
989.02746582	2.58823538
989.03143311	2.60784316
989.03558350	2.62745094
989.03973389	2.66666675
989.04382324	2.64705873
989.04382324	2.60784316
989.04797363	2.60784316
989.05206299	2.60784316
989.05603027	2.64705873
989.05603027	2.64705873
989.06018066	2.62745094
989.06433105	2.60784316
989.06829834	2.56862736
989.07244873	2.60784316
989.07244873	2.64705873
989.07653809	2.64705873
989.08062744	2.62745094
989.08483887	2.62745094
989.08483887	2.60784316
989.08880615	2.60784316
989.09301758	2.60784316
989.09698486	2.64705873
989.10119629	2.66666675
989.10119629	2.64705873
989.10516357	2.58823538
989.10925293	2.54901958
989.11346436	2.56862736
989.11346436	2.60784316
989.11761475	2.64705873
989.12158203	2.62745094
989.12567139	2.56862736
989.12982178	2.56862736
989.12982178	2.54901958
989.13397217	2.56862736
989.13806152	2.58823538
989.14202881	2.58823538
989.14202881	2.56862736
989.14624023	2.52941179
989.15032959	2.50980401
989.15447998	2.54901958
989.15863037	2.54901958
989.15863037	2.56862736
989.16259766	2.54901958
989.16674805	2.54901958
989.17083740	2.54901958
989.17083740	2.54901958
989.17486572	2.54901958
989.17913818	2.56862736
989.18304443	2.54901958
989.18719482	2.52941179
989.18719482	2.52941179
989.19128418	2.52941179
989.19537354	2.54901958
989.19934082	2.56862736
989.19934082	2.56862736
989.20355225	2.52941179
989.20764160	2.50980401
989.21160889	2.52941179
989.21582031	2.54901958
989.21582031	2.56862736
989.21990967	2.56862736
989.22406006	2.54901958
989.22821045	2.52941179
989.22821045	2.50980401
989.23223877	2.52941179
989.23632813	2.54901958
989.24041748	2.54901958
989.24456787	2.54901958
989.24859619	2.50980401
989.25268555	2.54901958
989.25677490	2.54901958
989.25677490	2.54901958
989.26086426	2.54901958
989.26507568	2.50980401
989.26904297	2.50980401
989.27313232	2.56862736
989.27728271	2.58823538
989.28143311	2.58823538
989.28552246	2.56862736
989.28552246	2.50980401
989.28967285	2.52941179
989.29376221	2.54901958
989.29785156	2.56862736
989.30181885	2.58823538
989.30603027	2.54901958
989.31005859	2.52941179
989.31420898	2.56862736
989.31420898	2.56862736
989.31829834	2.58823538
989.32232666	2.58823538
989.32647705	2.54901958
989.33056641	2.52941179
989.33471680	2.56862736
989.33868408	2.56862736
989.34277344	2.58823538
989.34277344	2.54901958
989.34686279	2.52941179
989.35107422	2.50980401
989.35516357	2.54901958
989.35919189	2.56862736
989.36328125	2.56862736
989.36749268	2.52941179
989.37158203	2.52941179
989.37158203	2.56862736
989.37548828	2.58823538
989.37963867	2.58823538
989.38378906	2.58823538
989.38378906	2.54901958
989.38793945	2.50980401
989.39202881	2.52941179
989.39605713	2.56862736
989.40020752	2.56862736
989.40020752	2.54901958
989.40429688	2.54901958
989.40844727	2.52941179
989.41235352	2.54901958
989.41235352	2.56862736
989.41650391	2.58823538
989.42059326	2.54901958
989.42480469	2.52941179
989.42871094	2.50980401
989.42871094	2.50980401
989.43304443	2.54901958
989.43701172	2.56862736
989.44116211	2.56862736
989.44116211	2.56862736
989.44519043	2.54901958
989.44927979	2.54901958
989.45343018	2.54901958
989.45751953	2.58823538
989.45751953	2.58823538
989.46154785	2.58823538
989.46563721	2.56862736
989.46978760	2.54901958
989.46978760	2.56862736
989.47387695	2.58823538
989.47808838	2.60784316
989.48211670	2.58823538
989.48620605	2.56862736
989.48620605	2.54901958
989.49023438	2.56862736
989.49444580	2.58823538
989.49853516	2.62745094
989.49853516	2.62745094
989.50250244	2.58823538
989.50665283	2.54901958
989.51080322	2.52941179
989.51495361	2.52941179
989.51495361	2.56862736
989.51904297	2.56862736
989.52307129	2.54901958
989.52716064	2.52941179
989.52716064	2.52941179
989.53131104	2.54901958
989.53533936	2.56862736
989.53942871	2.56862736
989.54370117	2.54901958
989.54370117	2.52941179
989.54772949	2.50980401
989.55187988	2.52941179
989.55578613	2.54901958
989.55578613	2.56862736
989.56005859	2.58823538
989.56414795	2.54901958
989.56817627	2.49019599
989.57214355	2.50980401
989.57214355	2.52941179
989.57629395	2.54901958
989.58056641	2.58823538
989.58465576	2.58823538
989.58465576	2.58823538
989.58862305	2.56862736
989.59271240	2.58823538
989.59686279	2.62745094
989.60101318	2.64705873
989.60510254	2.60784316
989.60906982	2.58823538
989.61315918	2.60784316
989.61315918	2.64705873
989.61737061	2.64705873
989.62145996	2.58823538
989.62542725	2.52941179
989.62951660	2.47058821
989.63372803	2.45098042
989.63781738	2.47058821
989.64190674	2.49019599
989.64190674	2.49019599
989.64605713	2.47058821
989.65008545	2.47058821
989.65417480	2.49019599
989.65826416	2.52941179
989.66229248	2.50980401
989.66644287	2.49019599
989.67053223	2.49019599
989.67053223	2.49019599
989.67480469	2.50980401
989.67871094	2.54901958
989.68286133	2.50980401
989.68695068	2.47058821
989.69104004	2.49019599
989.69519043	2.52941179
989.69921875	2.54901958
989.69921875	2.54901958
989.70330811	2.52941179
989.70739746	2.52941179
989.71154785	2.52941179
989.71557617	2.56862736
989.71966553	2.56862736
989.72381592	2.56862736
989.72790527	2.56862736
989.72790527	2.54901958
989.73205566	2.56862736
989.73602295	2.58823538
989.74017334	2.62745094
989.74017334	2.64705873
989.74432373	2.60784316
989.74847412	2.56862736
989.75250244	2.58823538
989.75653076	2.60784316
989.75653076	2.64705873
989.76068115	2.66666675
989.76483154	2.62745094
989.76892090	2.60784316
989.76892090	2.62745094
989.77301025	2.62745094
989.77697754	2.64705873
989.78112793	2.66666675
989.78527832	2.64705873
989.78527832	2.62745094
989.78924561	2.64705873
989.79339600	2.64705873
989.79760742	2.64705873
989.79760742	2.68627453
989.80175781	2.68627453
989.80572510	2.62745094
989.80987549	2.58823538
989.81396484	2.62745094
989.81396484	2.64705873
989.81811523	2.66666675
989.82208252	2.64705873
989.82617188	2.62745094
989.82617188	2.58823538
989.83026123	2.56862736
989.83447266	2.60784316
989.83843994	2.60784316
989.84252930	2.60784316
989.84252930	2.60784316
989.84674072	2.56862736
989.85089111	2.56862736
989.85498047	2.58823538
989.85498047	2.60784316
989.85913086	2.60784316
989.86309814	2.56862736
989.86724854	2.50980401
989.87133789	2.50980401
989.87133789	2.52941179
989.87542725	2.56862736
989.87945557	2.60784316
989.88360596	2.58823538
989.88360596	2.56862736
989.88769531	2.54901958
989.89178467	2.54901958
989.89581299	2.54901958
989.90008545	2.54901958
989.90008545	2.54901958
989.90405273	2.54901958
989.90814209	2.54901958
989.91229248	2.54901958
989.91229248	2.58823538
989.91638184	2.60784316
989.92047119	2.60784316
989.92462158	2.58823538
989.92883301	2.56862736
989.92883301	2.52941179
989.93267822	2.54901958
989.93688965	2.58823538
989.94091797	2.60784316
989.94091797	2.60784316
989.94494629	2.56862736
989.94903564	2.56862736
989.95312500	2.58823538
989.95727539	2.60784316
989.95727539	2.58823538
989.96142578	2.56862736
989.96545410	2.54901958
989.96954346	2.52941179
989.96954346	2.52941179
989.97363281	2.58823538
989.97778320	2.60784316
989.98187256	2.64705873
989.98602295	2.60784316
989.99005127	2.60784316
989.99414063	2.62745094
989.99822998	2.64705873
989.99822998	2.64705873
990.00225830	2.60784316
990.00634766	2.60784316
990.01055908	2.58823538
990.01464844	2.64705873
990.01867676	2.64705873
990.02276611	2.64705873
990.02703857	2.60784316
990.02703857	2.56862736
990.03094482	2.56862736
990.03515625	2.60784316
990.03918457	2.62745094
990.04327393	2.60784316
990.04748535	2.58823538
990.05157471	2.58823538
990.05572510	2.56862736
990.05572510	2.58823538
990.05969238	2.58823538
990.06384277	2.56862736
990.06799316	2.54901958
990.07202148	2.56862736
990.07604980	2.60784316
990.08020020	2.58823538
990.08435059	2.58823538
990.08435059	2.56862736
990.08843994	2.52941179
990.09240723	2.52941179
990.09655762	2.52941179
990.10070801	2.56862736
990.10479736	2.52941179
990.10876465	2.52941179
990.11303711	2.52941179
990.11303711	2.54901958
990.11700439	2.58823538
990.12109375	2.58823538
990.12530518	2.56862736
990.12530518	2.54901958
990.12927246	2.52941179
990.13342285	2.54901958
990.13751221	2.56862736
990.14166260	2.58823538
990.14166260	2.56862736
990.14562988	2.54901958
990.14984131	2.54901958
990.15386963	2.52941179
990.15386963	2.56862736
990.15802002	2.60784316
990.16210938	2.58823538
990.16619873	2.56862736
990.17034912	2.54901958
990.17034912	2.54901958
990.17449951	2.60784316
990.17858887	2.60784316
990.18261719	2.62745094
990.18261719	2.58823538
990.18670654	2.52941179
990.19079590	2.54901958
990.19494629	2.56862736
990.19909668	2.58823538
990.19909668	2.60784316
990.20306396	2.58823538
990.20715332	2.58823538
990.21130371	2.56862736
990.21130371	2.56862736
990.21527100	2.58823538
990.21942139	2.58823538
990.22351074	2.58823538
990.22766113	2.54901958
990.22766113	2.52941179
990.23181152	2.52941179
990.23577881	2.56862736
990.24005127	2.56862736
990.24005127	2.60784316
990.24401855	2.56862736
990.24822998	2.52941179
990.25225830	2.52941179
990.25628662	2.52941179
990.25628662	2.56862736
990.26037598	2.54901958
990.26458740	2.52941179
990.26873779	2.50980401
990.26873779	2.49019599
990.27264404	2.50980401
990.27673340	2.54901958
990.28100586	2.56862736
990.28503418	2.52941179
990.28503418	2.50980401
990.28900146	2.49019599
990.29315186	2.52941179
990.29724121	2.58823538
990.29724121	2.60784316
990.30139160	2.60784316
990.30541992	2.58823538
990.30950928	2.60784316
990.31372070	2.62745094
990.31372070	2.64705873
990.31781006	2.64705873
990.32196045	2.60784316
990.32604980	2.60784316
990.32604980	2.56862736
990.33001709	2.58823538
990.33416748	2.58823538
990.33831787	2.54901958
990.34240723	2.49019599
990.34637451	2.43137264
990.35058594	2.43137264
990.35467529	2.45098042
990.35467529	2.49019599
990.35864258	2.50980401
990.36279297	2.50980401
990.36706543	2.50980401
990.37103271	2.52941179
990.37518311	2.52941179
990.37921143	2.54901958
990.38336182	2.54901958
990.38336182	2.52941179
990.38745117	2.50980401
990.39154053	2.50980401
990.39569092	2.54901958
990.39959717	2.58823538
990.40374756	2.56862736
990.40789795	2.52941179
990.41204834	2.50980401
990.41204834	2.54901958
990.41601563	2.56862736
990.42016602	2.56862736
990.42431641	2.56862736
990.42840576	2.52941179
990.43243408	2.54901958
990.43658447	2.54901958
990.44067383	2.58823538
990.44067383	2.58823538
990.44476318	2.54901958
990.44885254	2.52941179
990.45306396	2.52941179
990.45306396	2.58823538
990.45703125	2.60784316
990.46105957	2.62745094
990.46527100	2.60784316
990.46929932	2.56862736
990.46929932	2.58823538
990.47338867	2.58823538
990.47753906	2.64705873
990.48162842	2.64705873
990.48162842	2.62745094
990.48565674	2.60784316
990.48974609	2.58823538
990.49395752	2.62745094
990.49810791	2.60784316
990.49810791	2.64705873
990.50207520	2.62745094
990.50616455	2.60784316
990.51031494	2.56862736
990.51031494	2.56862736
990.51440430	2.58823538
990.51843262	2.60784316
990.52252197	2.60784316
990.52661133	2.58823538
990.52661133	2.56862736
990.53076172	2.54901958
990.53491211	2.58823538
990.53900146	2.62745094
990.53900146	2.62745094
990.54302979	2.58823538
990.54718018	2.54901958
990.55133057	2.52941179
990.55548096	2.54901958
990.55548096	2.56862736
990.55944824	2.58823538
990.56359863	2.56862736
990.56774902	2.54901958
990.56774902	2.54901958
990.57177734	2.54901958
990.57580566	2.54901958
990.58007813	2.50980401
990.58404541	2.52941179
990.58404541	2.50980401
990.58813477	2.49019599
990.59228516	2.50980401
990.59631348	2.52941179
990.59631348	2.54901958
990.60046387	2.54901958
990.60461426	2.50980401
990.60870361	2.50980401
990.61273193	2.50980401
990.61273193	2.54901958
990.61688232	2.56862736
990.62097168	2.58823538
990.62506104	2.56862736
990.62506104	2.52941179
990.62902832	2.52941179
990.63317871	2.54901958
990.63739014	2.56862736
990.64160156	2.58823538
990.64160156	2.56862736
990.64538574	2.52941179
990.64953613	2.52941179
990.65362549	2.52941179
990.65362549	2.54901958
990.65777588	2.56862736
990.66192627	2.54901958
990.66601563	2.54901958
990.66998291	2.52941179
990.66998291	2.50980401
990.67413330	2.54901958
990.67828369	2.56862736
990.68255615	2.56862736
990.68255615	2.56862736
990.68646240	2.54901958
990.69055176	2.54901958
990.69464111	2.58823538
990.69891357	2.62745094
990.70281982	2.62745094
990.70690918	2.58823538
990.71105957	2.56862736
990.71105957	2.54901958
990.71520996	2.58823538
990.71917725	2.58823538
990.72332764	2.58823538
990.72747803	2.52941179
990.73156738	2.52941179
990.73559570	2.54901958
990.73968506	2.58823538
990.73968506	2.62745094
990.74383545	2.56862736
990.74798584	2.56862736
990.75207520	2.54901958
990.75604248	2.60784316
990.76013184	2.58823538
990.76428223	2.60784316
990.76843262	2.56862736
990.76843262	2.52941179
990.77239990	2.56862736
990.77655029	2.58823538
990.78076172	2.58823538
990.78485107	2.54901958
990.78881836	2.54901958
990.79302979	2.54901958
990.79705811	2.56862736
990.79705811	2.60784316
990.80126953	2.58823538
990.80535889	2.54901958
990.80932617	2.27450991
990.81353760	2.52941179
990.81756592	2.56862736
990.82171631	2.72549009
990.82580566	2.68627453
990.82580566	2.25490189
990.82977295	2.25490189
990.83392334	2.60784316
990.83807373	2.64705873
990.83807373	2.58823538
990.84216309	2.54901958
990.84606934	2.52941179
990.85028076	2.49019599
990.85437012	2.49019599
990.85437012	2.52941179
990.85852051	2.56862736
990.86254883	2.54901958
990.86663818	2.52941179
990.86663818	2.49019599
990.87072754	2.49019599
990.87487793	2.50980401
990.87908936	2.50980401
990.88311768	2.52941179
990.88311768	2.52941179
990.88714600	2.50980401
990.89129639	2.52941179
990.89538574	2.54901958
990.89538574	2.54901958
990.89947510	2.58823538
990.90350342	2.56862736
990.90765381	2.54901958
990.91180420	2.54901958
990.91180420	2.56862736
990.91577148	2.60784316
990.92004395	2.64705873
990.92401123	2.64705873
990.92401123	2.58823538
990.92816162	2.56862736
990.93212891	2.58823538
990.93627930	2.62745094
990.94036865	2.66666675
990.94036865	2.66666675
990.94451904	2.62745094
990.94866943	2.60784316
990.95281982	2.60784316
990.95281982	2.64705873
990.95678711	2.66666675
990.96087646	2.66666675
990.96508789	2.64705873
990.96917725	2.62745094
990.96917725	2.64705873
990.97314453	2.62745094
990.97729492	2.64705873
990.98138428	2.66666675
990.98138428	2.64705873
990.98553467	2.62745094
990.98950195	2.60784316
990.99371338	2.64705873
990.99780273	2.68627453
990.99780273	2.70588231
991.00201416	2.74509811
991.00610352	2.74509811
991.01007080	2.68627453
991.01007080	2.68627453
991.01422119	2.70588231
991.01831055	2.74509811
991.02246094	2.72549009
991.02642822	2.66666675
991.02642822	2.60784316
991.03051758	2.58823538
991.03466797	2.56862736
991.03881836	2.54901958
991.03881836	2.56862736
991.04278564	2.56862736
991.04705811	2.54901958
991.05108643	2.50980401
991.05523682	2.58823538
991.05920410	2.60784316
991.06329346	2.56862736
991.06750488	2.54901958
991.06750488	2.54901958
991.07159424	2.58823538
991.07562256	2.60784316
991.07971191	2.62745094
991.08386230	2.58823538
991.08789063	2.56862736
991.09204102	2.56862736
991.09613037	2.56862736
991.09613037	2.60784316
991.10021973	2.60784316
991.10424805	2.58823538
991.10839844	2.54901958
991.11254883	2.58823538
991.11651611	2.58823538
991.12066650	2.60784316
991.12475586	2.58823538
991.12475586	2.56862736
991.12890625	2.54901958
991.13299561	2.56862736
991.13702393	2.60784316
991.14111328	2.64705873
991.14526367	2.60784316
991.14923096	2.58823538
991.15338135	2.60784316
991.15338135	2.64705873
991.15753174	2.68627453
991.16168213	2.66666675
991.16577148	2.66666675
991.16979980	2.62745094
991.17388916	2.64705873
991.17803955	2.68627453
991.18218994	2.68627453
991.18218994	2.68627453
991.18621826	2.64705873
991.19036865	2.62745094
991.19445801	2.64705873
991.19445801	2.68627453
991.19860840	2.68627453
991.20251465	2.66666675
991.20666504	2.60784316
991.21075439	2.60784316
991.21075439	2.62745094
991.21496582	2.64705873
991.21899414	2.64705873
991.22302246	2.64705873
991.22302246	2.60784316
991.22717285	2.58823538
991.23132324	2.56862736
991.23547363	2.60784316
991.23962402	2.62745094
991.23962402	2.62745094
991.24353027	2.60784316
991.24768066	2.60784316
991.25183105	2.58823538
991.25183105	2.56862736
991.25598145	2.56862736
991.26007080	2.58823538
991.26409912	2.58823538
991.26824951	2.52941179
991.26824951	2.49019599
991.27233887	2.50980401
991.27630615	2.52941179
991.28039551	2.52941179
991.28039551	2.52941179
991.28460693	2.50980401
991.28863525	2.49019599
991.29266357	2.49019599
991.29681396	2.49019599
991.29681396	2.52941179
991.30090332	2.52941179
991.30505371	2.49019599
991.30914307	2.43137264
991.30914307	2.45098042
991.31317139	2.49019599
991.31726074	2.52941179
991.32135010	2.50980401
991.32543945	2.52941179
991.32543945	2.47058821
991.32952881	2.47058821
991.33361816	2.45098042
991.33776855	2.50980401
991.33776855	2.50980401
991.34191895	2.54901958
991.34600830	2.49019599
991.35003662	2.47058821
991.35412598	2.50980401
991.35412598	2.54901958
991.35827637	2.56862736
991.36230469	2.56862736
991.36645508	2.50980401
991.36645508	2.47058821
991.37060547	2.49019599
991.37469482	2.54901958
991.37890625	2.56862736
991.38293457	2.58823538
991.38293457	2.56862736
991.38708496	2.56862736
991.39105225	2.54901958
991.39514160	2.54901958
991.39514160	2.58823538
991.39916992	2.62745094
991.40332031	2.62745094
991.40740967	2.58823538
991.41149902	2.58823538
991.41149902	2.58823538
991.41571045	2.60784316
991.41961670	2.58823538
991.42376709	2.58823538
991.42376709	2.56862736
991.42791748	2.56862736
991.43200684	2.58823538
991.43603516	2.60784316
991.44012451	2.58823538
991.44427490	2.58823538
991.44842529	2.54901958
991.45251465	2.56862736
991.45251465	2.56862736
991.45654297	2.60784316
991.46063232	2.60784316
991.46478271	2.62745094
991.46893311	2.54901958
991.47302246	2.54901958
991.47705078	2.56862736
991.48114014	2.60784316
991.48114014	2.60784316
991.48529053	2.60784316
991.48925781	2.56862736
991.49334717	2.56862736
991.49749756	2.54901958
991.50164795	2.56862736
991.50579834	2.54901958
991.50976563	2.54901958
991.50976563	2.52941179
991.51385498	2.56862736
991.51806641	2.56862736
991.52215576	2.60784316
991.52618408	2.52941179
991.53027344	2.50980401
991.53442383	2.50980401
991.53857422	2.56862736
991.53857422	2.58823538
991.54254150	2.58823538
991.54663086	2.54901958
991.55078125	2.54901958
991.55493164	2.54901958
991.55908203	2.56862736
991.56304932	2.58823538
991.56719971	2.58823538
991.56719971	2.49019599
991.57135010	2.52941179
991.57543945	2.56862736
991.57971191	2.60784316
991.57971191	2.64705873
991.58361816	2.60784316
991.58770752	2.58823538
991.59179688	2.54901958
991.59588623	2.54901958
991.59588623	2.56862736
991.60003662	2.60784316
991.60406494	2.58823538
991.60815430	2.56862736
991.60815430	2.52941179
991.61224365	2.54901958
991.61633301	2.56862736
991.62048340	2.58823538
991.62457275	2.60784316
991.62457275	2.60784316
991.62872314	2.56862736
991.63262939	2.54901958
991.63684082	2.52941179
991.63684082	2.52941179
991.64099121	2.54901958
991.64501953	2.58823538
991.64904785	2.60784316
991.65319824	2.62745094
991.65319824	2.64705873
991.65734863	2.66666675
991.66143799	2.68627453
991.66552734	2.66666675
991.66552734	2.64705873
991.66949463	2.66666675
991.67364502	2.70588231
991.67779541	2.68627453
991.68188477	2.66666675
991.68188477	2.70588231
991.68603516	2.70588231
991.69000244	2.68627453
991.69415283	2.60784316
991.69415283	2.58823538
991.69830322	2.56862736
991.70245361	2.56862736
991.70642090	2.52941179
991.71051025	2.50980401
991.71051025	2.52941179
991.71466064	2.56862736
991.71868896	2.58823538
991.72283936	2.58823538
991.72283936	2.56862736
991.72705078	2.52941179
991.73101807	2.52941179
991.73516846	2.56862736
991.73925781	2.58823538
991.73925781	2.62745094
991.74322510	2.66666675
991.74737549	2.62745094
991.75158691	2.60784316
991.75158691	2.60784316
991.75573730	2.60784316
991.75970459	2.60784316
991.76379395	2.56862736
991.76794434	2.54901958
991.76794434	2.52941179
991.77209473	2.58823538
991.77600098	2.64705873
991.78015137	2.66666675
991.78015137	2.64705873
991.78430176	2.58823538
991.78845215	2.49019599
991.79254150	2.47058821
991.79650879	2.52941179
991.79650879	2.54901958
991.80065918	2.54901958
991.80480957	2.58823538
991.80895996	2.54901958
991.80895996	2.56862736
991.81311035	2.56862736
991.81713867	2.62745094
991.82116699	2.64705873
991.82537842	2.62745094
991.82928467	2.56862736
991.83343506	2.58823538
991.83758545	2.62745094
991.83758545	2.64705873
991.84167480	2.66666675
991.84576416	2.70588231
991.84979248	2.72549009
991.85406494	2.70588231
991.85809326	2.62745094
991.86218262	2.60784316
991.86633301	2.64705873
991.86633301	2.58823538
991.87030029	2.58823538
991.87445068	2.62745094
991.87860107	2.62745094
991.88269043	2.64705873
991.88671875	2.70588231
991.89080811	2.88235283
991.89489746	2.88235283
991.89489746	2.76470590
991.89910889	2.66666675
991.90307617	2.60784316
991.90716553	2.54901958
991.91125488	2.52941179
991.91540527	2.50980401
991.91943359	2.54901958
991.92358398	2.60784316
991.92358398	2.66666675
991.92767334	2.64705873
991.93182373	2.64705873
991.93597412	2.64705873
991.93597412	2.64705873
991.94006348	2.62745094
991.94409180	2.66666675
991.94818115	2.62745094
991.95233154	2.60784316
991.95233154	2.58823538
991.95629883	2.66666675
991.96038818	2.72549009
991.96453857	2.70588231
991.96453857	2.60784316
991.96868896	2.49019599
991.97283936	2.58823538
991.97674561	2.66666675
991.98101807	2.64705873
991.98101807	2.58823538
991.98504639	2.54901958
991.98919678	2.50980401
991.99322510	2.54901958
991.99322510	2.56862736
991.99731445	2.62745094
992.00146484	2.62745094
992.00561523	2.62745094
992.00970459	2.56862736
992.00970459	2.56862736
992.01367188	2.56862736
992.01782227	2.58823538
992.02191162	2.62745094
992.02191162	2.62745094
992.02606201	2.62745094
992.03002930	2.62745094
992.03411865	2.68627453
992.03833008	2.70588231
992.03833008	2.66666675
992.04241943	2.58823538
992.04638672	2.50980401
992.05047607	2.50980401
992.05047607	2.52941179
992.05462646	2.68627453
992.05877686	2.90196085
992.06286621	2.92156863
992.06701660	2.72549009
992.06701660	2.54901958
992.07098389	2.45098042
992.07513428	2.47058821
992.07928467	2.52941179
992.07928467	2.56862736
992.08331299	2.60784316
992.08746338	2.58823538
992.09149170	2.54901958
992.09564209	2.54901958
992.09564209	2.60784316
992.09973145	2.62745094
992.10382080	2.60784316
992.10803223	2.58823538
992.10803223	2.52941179
992.11199951	2.60784316
992.11614990	2.76470590
992.12011719	2.72549009
992.12426758	2.58823538
992.12426758	2.47058821
992.12841797	2.50980401
992.13250732	2.47058821
992.13671875	2.49019599
992.13671875	2.54901958
992.14068604	2.54901958
992.14483643	2.54901958
992.14892578	2.56862736
992.15307617	2.58823538
992.15307617	2.56862736
992.15704346	2.56862736
992.16113281	2.56862736
992.16522217	2.56862736
992.16522217	2.58823538
992.16943359	2.58823538
992.17340088	2.54901958
992.17749023	2.60784316
992.18164063	2.84313726
992.18579102	2.82352948
992.18981934	2.52941179
992.19409180	2.43137264
992.19409180	2.43137264
992.19805908	2.49019599
992.20220947	2.52941179
992.20635986	2.49019599
992.21032715	2.47058821
992.21441650	2.47058821
992.21856689	2.50980401
992.22265625	2.50980401
992.22265625	2.49019599
992.22668457	2.47058821
992.23077393	2.47058821
992.23486328	2.47058821
992.23907471	2.49019599
992.24304199	2.49019599
992.24713135	2.47058821
992.25128174	2.43137264
992.25128174	2.43137264
992.25543213	2.47058821
992.25958252	2.47058821
992.26354980	2.50980401
992.26770020	2.45098042
992.27185059	2.41176462
992.27593994	2.47058821
992.28009033	2.50980401
992.28009033	2.50980401
992.28405762	2.45098042
992.28820801	2.41176462
992.29223633	2.43137264
992.29620361	2.47058821
992.30047607	2.52941179
992.30456543	2.50980401
992.30859375	2.49019599
992.30859375	2.47058821
992.31274414	2.49019599
992.31683350	2.56862736
992.32104492	2.60784316
992.32104492	2.62745094
992.32501221	2.58823538
992.32916260	2.50980401
992.33312988	2.49019599
992.33728027	2.54901958
992.33728027	2.56862736
992.34136963	2.54901958
992.34545898	2.49019599
992.34967041	2.41176462
992.34967041	2.41176462
992.35363770	2.39215684
992.35778809	2.39215684
992.36193848	2.41176462
992.36608887	2.43137264
992.36608887	2.43137264
992.37005615	2.37254906
992.37420654	2.39215684
992.37829590	2.41176462
992.37829590	2.43137264
992.38238525	2.45098042
992.38647461	2.43137264
992.39056396	2.43137264
992.39471436	2.43137264
992.39471436	2.47058821
992.39880371	2.47058821
992.40277100	2.47058821
992.40704346	2.49019599
992.40704346	2.43137264
992.41101074	2.43137264
992.41516113	2.45098042
992.41931152	2.49019599
992.42340088	2.49019599
992.42340088	2.50980401
992.42736816	2.47058821
992.43157959	2.45098042
992.43566895	2.50980401
992.43566895	2.52941179
992.43963623	2.54901958
992.44372559	2.50980401
992.44787598	2.50980401
992.45202637	2.49019599
992.45202637	2.50980401
992.45611572	2.56862736
992.46008301	2.54901958
992.46423340	2.62745094
992.46423340	2.62745094
992.46844482	2.58823538
992.47253418	2.54901958
992.47650146	2.56862736
992.48065186	2.62745094
992.48065186	2.60784316
992.48480225	2.60784316
992.48889160	2.58823538
992.49298096	2.56862736
992.49298096	2.60784316
992.49700928	2.64705873
992.50109863	2.68627453
992.50524902	2.64705873
992.50939941	2.62745094
992.50939941	2.58823538
992.51342773	2.58823538
992.51751709	2.62745094
992.52160645	2.64705873
992.52160645	2.62745094
992.52569580	2.60784316
992.52966309	2.56862736
992.53399658	2.60784316
992.53802490	2.60784316
992.53802490	2.64705873
992.54217529	2.64705873
992.54626465	2.60784316
992.55029297	2.58823538
992.55029297	2.58823538
992.55438232	2.60784316
992.55853271	2.62745094
992.56262207	2.62745094
992.56671143	2.56862736
992.57080078	2.56862736
992.57495117	2.56862736
992.57904053	2.56862736
992.57904053	2.60784316
992.58306885	2.54901958
992.58721924	2.54901958
992.59130859	2.52941179
992.59539795	2.56862736
992.59948730	2.56862736
992.60357666	2.58823538
992.60766602	2.58823538
992.60766602	2.56862736
992.61175537	2.54901958
992.61590576	2.58823538
992.61999512	2.60784316
992.62402344	2.56862736
992.62811279	2.54901958
992.63226318	2.52941179
992.63641357	2.56862736
992.63641357	2.58823538
992.64038086	2.60784316
992.64447021	2.56862736
992.64862061	2.54901958
992.65283203	2.56862736
992.65686035	2.60784316
992.66101074	2.60784316
992.66503906	2.58823538
992.66503906	2.54901958
992.66912842	2.52941179
992.67321777	2.52941179
992.67724609	2.56862736
992.67724609	2.60784316
992.68139648	2.62745094
992.68548584	2.60784316
992.68963623	2.56862736
992.69360352	2.54901958
992.69360352	2.54901958
992.69775391	2.58823538
992.70190430	2.58823538
992.70605469	2.58823538
992.70605469	2.56862736
992.71002197	2.52941179
992.71417236	2.56862736
992.71832275	2.60784316
992.72241211	2.60784316
992.72241211	2.60784316
992.72644043	2.60784316
992.73052979	2.56862736
992.73461914	2.56862736
992.73461914	2.60784316
992.73883057	2.60784316
992.74291992	2.60784316
992.74700928	2.56862736
992.75115967	2.54901958
992.75115967	2.56862736
992.75518799	2.56862736
992.75933838	2.60784316
992.76348877	2.66666675
992.76348877	2.66666675
992.76745605	2.60784316
992.77154541	2.58823538
992.77569580	2.62745094
992.77984619	2.64705873
992.77984619	2.66666675
992.78381348	2.64705873
992.78790283	2.64705873
992.79205322	2.62745094
992.79205322	2.64705873
992.79614258	2.68627453
992.80010986	2.68627453
992.80432129	2.64705873
992.80841064	2.64705873
992.80841064	2.64705873
992.81250000	2.62745094
992.81652832	2.62745094
992.82073975	2.64705873
992.82073975	2.66666675
992.82482910	2.62745094
992.82897949	2.60784316
992.83312988	2.58823538
992.83703613	2.62745094
992.83703613	2.66666675
992.84118652	2.62745094
992.84527588	2.62745094
992.84936523	2.62745094
992.84936523	2.60784316
992.85339355	2.62745094
992.85754395	2.64705873
992.86163330	2.66666675
992.86578369	2.66666675
992.86578369	2.64705873
992.86987305	2.60784316
992.87408447	2.62745094
992.87805176	2.64705873
992.87805176	2.64705873
992.88220215	2.62745094
992.88635254	2.58823538
992.89031982	2.58823538
992.89440918	2.56862736
992.89440918	2.58823538
992.89862061	2.60784316
992.90270996	2.58823538
992.90679932	2.58823538
992.90679932	2.58823538
992.91076660	2.54901958
992.91485596	2.54901958
992.91906738	2.56862736
992.92303467	2.56862736
992.92712402	2.52941179
992.93121338	2.52941179
992.93536377	2.52941179
992.93536377	2.54901958
992.93951416	2.56862736
992.94348145	2.58823538
992.94757080	2.56862736
992.95184326	2.56862736
992.95593262	2.60784316
992.96008301	2.64705873
992.96405029	2.62745094
992.96405029	2.60784316
992.96820068	2.58823538
992.97229004	2.60784316
992.97637939	2.62745094
992.98040771	2.64705873
992.98449707	2.60784316
992.98870850	2.58823538
992.99273682	2.52941179
992.99273682	2.49019599
992.99676514	2.49019599
993.00109863	2.45098042
993.00500488	2.43137264
993.00915527	2.41176462
993.01324463	2.43137264
993.01727295	2.47058821
993.02136230	2.52941179
993.02136230	2.52941179
993.02551270	2.50980401
993.02954102	2.49019599
993.03375244	2.49019599
993.03375244	2.49019599
993.03765869	2.50980401
993.04187012	2.52941179
993.04602051	2.50980401
993.05017090	2.50980401
993.05017090	2.49019599
993.05413818	2.50980401
993.05822754	2.52941179
993.06237793	2.54901958
993.06237793	2.54901958
993.06652832	2.50980401
993.07055664	2.47058821
993.07470703	2.50980401
993.07879639	2.52941179
993.07879639	2.54901958
993.08294678	2.52941179
993.08703613	2.52941179
993.09106445	2.52941179
993.09106445	2.52941179
993.09515381	2.56862736
993.09924316	2.56862736
993.10333252	2.56862736
993.10736084	2.56862736
993.10736084	2.54901958
993.11151123	2.54901958
993.11566162	2.58823538
993.11987305	2.60784316
993.11987305	2.60784316
993.12377930	2.58823538
993.12792969	2.56862736
993.13201904	2.56862736
993.13616943	2.58823538
993.13616943	2.62745094
993.14019775	2.64705873
993.14428711	2.60784316
993.14837646	2.60784316
993.14837646	2.58823538
993.15252686	2.60784316
993.15667725	2.62745094
993.16064453	2.64705873
993.16473389	2.64705873
993.16473389	2.62745094
993.16888428	2.58823538
993.17309570	2.58823538
993.17700195	2.60784316
993.17700195	2.64705873
993.18115234	2.64705873
993.18530273	2.60784316
993.18945313	2.58823538
993.19354248	2.58823538
993.19354248	2.60784316
993.19750977	2.62745094
993.20166016	2.64705873
993.20581055	2.62745094
993.20581055	2.56862736
993.20983887	2.54901958
993.21405029	2.56862736
993.21807861	2.58823538
993.22216797	2.58823538
993.22216797	2.58823538
993.22631836	2.56862736
993.23028564	2.52941179
993.23437500	2.54901958
993.23437500	2.54901958
993.23852539	2.52941179
993.24267578	2.54901958
993.24664307	2.54901958
993.25079346	2.50980401
993.25079346	2.50980401
993.25482178	2.54901958
993.25903320	2.56862736
993.26312256	2.54901958
993.26312256	2.50980401
993.26715088	2.49019599
993.27124023	2.47058821
993.27532959	2.50980401
993.27947998	2.56862736
993.28356934	2.54901958
993.28765869	2.52941179
993.29180908	2.49019599
993.29180908	2.47058821
993.29589844	2.50980401
993.29998779	2.52941179
993.30407715	2.50980401
993.30804443	2.50980401
993.31225586	2.49019599
993.31640625	2.50980401
993.32037354	2.54901958
993.32037354	2.52941179
993.32446289	2.50980401
993.32861328	2.47058821
993.33276367	2.45098042
993.33679199	2.52941179
993.34106445	2.52941179
993.34509277	2.54901958
993.34912109	2.52941179
993.34912109	2.49019599
993.35314941	2.47058821
993.35729980	2.52941179
993.36145020	2.56862736
993.36553955	2.52941179
993.36962891	2.49019599
993.37359619	2.50980401
993.37774658	2.54901958
993.37774658	2.58823538
993.38189697	2.58823538
993.38598633	2.54901958
993.39013672	2.54901958
993.39410400	2.56862736
993.39825439	2.60784316
993.40240479	2.60784316
993.40655518	2.60784316
993.40655518	2.54901958
993.41052246	2.50980401
993.41461182	2.54901958
993.41876221	2.58823538
993.41876221	2.60784316
993.42291260	2.60784316
993.42700195	2.60784316
993.43103027	2.56862736
993.43518066	2.54901958
993.43518066	2.58823538
993.43927002	2.58823538
993.44323730	2.58823538
993.44738770	2.56862736
993.44738770	2.52941179
993.45153809	2.58823538
993.45562744	2.60784316
993.45977783	2.62745094
993.46368408	2.64705873
993.46368408	2.62745094
993.46813965	2.58823538
993.47204590	2.56862736
993.47619629	2.58823538
993.47619629	2.60784316
993.48010254	2.62745094
993.48419189	2.62745094
993.48834229	2.58823538
993.49243164	2.56862736
993.49243164	2.56862736
993.49670410	2.62745094
993.50061035	2.64705873
993.50469971	2.66666675
993.50469971	2.60784316
993.50885010	2.58823538
993.51300049	2.58823538
993.51696777	2.64705873
993.52111816	2.60784316
993.52111816	2.62745094
993.52520752	2.62745094
993.52929688	2.58823538
993.53350830	2.58823538
993.53350830	2.60784316
993.53741455	2.58823538
993.54162598	2.60784316
993.54577637	2.58823538
993.54986572	2.52941179
993.54986572	2.50980401
993.55401611	2.50980401
993.55798340	2.56862736
993.56213379	2.58823538
993.56213379	2.58823538
993.56628418	2.54901958
993.57025146	2.49019599
993.57434082	2.47058821
993.57849121	2.50980401
993.57849121	2.52941179
993.58264160	2.54901958
993.58666992	2.52941179
993.59082031	2.52941179
993.59082031	2.49019599
993.59490967	2.50980401
993.59899902	2.56862736
993.60321045	2.58823538
993.60717773	2.60784316
993.60717773	2.58823538
993.61120605	2.52941179
993.61535645	2.54901958
993.61950684	2.58823538
993.61950684	2.60784316
993.62347412	2.56862736
993.62762451	2.52941179
993.63171387	2.52941179
993.63586426	2.47058821
993.64007568	2.47058821
993.64404297	2.41176462
993.64813232	2.37254906
993.64813232	2.35294127
993.65228271	2.35294127
993.65637207	2.43137264
993.66046143	2.45098042
993.66455078	2.37254906
993.66864014	2.35294127
993.67279053	2.43137264
993.67687988	2.54901958
993.67687988	2.62745094
993.68103027	2.60784316
993.68499756	2.64705873
993.68914795	2.50980401
993.69329834	2.58823538
993.69726563	2.54901958
993.70147705	2.54901958
993.70556641	2.68627453
993.70556641	2.66666675
993.70971680	2.58823538
993.71368408	2.56862736
993.71777344	2.58823538
993.72192383	2.50980401
993.72601318	2.47058821
993.73022461	2.35294127
993.73413086	2.35294127
993.73413086	2.37254906
993.73822021	2.37254906
993.74243164	2.35294127
993.74652100	2.29411769
993.75054932	2.29411769
993.75463867	2.35294127
993.75878906	2.31372547
993.76293945	2.33333325
993.76293945	2.27450991
993.76708984	2.21568632
993.77105713	2.21568632
993.77514648	2.29411769
993.77514648	2.33333325
993.77929688	2.35294127
993.78344727	2.41176462
993.78741455	2.43137264
993.79156494	2.37254906
993.79156494	2.37254906
993.79565430	2.27450991
993.79974365	2.31372547
993.80389404	2.35294127
993.80389404	2.33333325
993.80804443	2.31372547
993.81201172	2.33333325
993.81616211	2.39215684
993.82031250	2.52941179
993.82031250	2.56862736
993.82427979	2.43137264
993.82836914	2.31372547
993.83251953	2.31372547
993.83251953	2.35294127
993.83666992	2.37254906
993.84063721	2.43137264
993.84478760	2.41176462
993.84887695	2.37254906
993.84887695	2.31372547
993.85308838	2.29411769
993.85705566	2.33333325
993.86114502	2.33333325
993.86114502	2.41176462
993.86529541	2.43137264
993.86938477	2.43137264
993.87353516	2.37254906
993.87750244	2.35294127
993.87750244	2.37254906
993.88165283	2.43137264
993.88568115	2.47058821
993.88983154	2.52941179
993.88983154	2.58823538
993.89398193	2.56862736
993.89801025	2.47058821
993.90209961	2.43137264
993.90625000	2.52941179
993.90625000	2.58823538
993.91027832	2.52941179
993.91442871	2.52941179
993.91857910	2.52941179
993.91857910	2.52941179
993.92272949	2.56862736
993.92681885	2.64705873
993.93084717	2.58823538
993.93499756	2.47058821
993.93499756	2.54901958
993.93896484	2.62745094
993.94317627	2.68627453
993.94726563	2.49019599
993.94726563	2.50980401
993.95123291	2.54901958
993.95538330	2.58823538
993.95953369	2.66666675
993.96374512	2.72549009
993.96374512	2.70588231
993.96765137	2.66666675
993.97180176	2.60784316
993.97595215	2.60784316
993.97595215	2.70588231
993.98010254	2.70588231
993.98400879	2.74509811
993.98815918	2.66666675
993.99224854	2.68627453
993.99224854	2.62745094
993.99633789	2.64705873
994.00042725	2.70588231
994.00451660	2.72549009
994.00451660	2.74509811
994.00866699	2.84313726
994.01275635	2.78431368
994.01690674	2.76470590
994.02099609	2.78431368
994.02502441	2.78431368
994.02917480	2.80392146
994.03332520	2.70588231
994.03332520	2.70588231
994.03729248	2.76470590
994.04138184	2.80392146
994.04553223	2.70588231
994.04968262	2.54901958
994.05364990	2.62745094
994.05773926	2.72549009
994.06188965	2.72549009
994.06188965	2.74509811
994.06604004	2.68627453
994.07012939	2.60784316
994.07409668	2.62745094
994.07824707	2.74509811
994.08233643	2.74509811
994.08654785	2.66666675
994.09069824	2.64705873
994.09069824	2.64705873
994.09466553	2.60784316
994.09881592	2.68627453
994.10290527	2.68627453
994.10705566	2.62745094
994.11102295	2.66666675
994.11511230	2.70588231
994.11926270	2.80392146
994.11926270	2.76470590
994.12341309	2.64705873
994.12738037	2.66666675
994.13153076	2.62745094
994.13568115	2.74509811
994.13983154	2.76470590
994.14379883	2.62745094
994.14801025	2.54901958
994.14801025	2.47058821
994.15203857	2.56862736
994.15618896	2.64705873
994.16027832	2.64705873
994.16430664	2.70588231
994.16839600	2.66666675
994.17254639	2.56862736
994.17669678	2.54901958
994.17669678	2.56862736
994.18060303	2.68627453
994.18475342	2.70588231
994.18890381	2.56862736
994.18890381	2.52941179
994.19299316	2.54901958
994.19696045	2.60784316
994.20111084	2.56862736
994.20526123	2.56862736
994.20526123	2.68627453
994.20935059	2.62745094
994.21343994	2.52941179
994.21752930	2.47058821
994.21752930	2.47058821
994.22161865	2.62745094
994.22570801	2.70588231
994.22985840	2.62745094
994.23394775	2.64705873
994.23394775	2.68627453
994.23797607	2.54901958
994.24206543	2.54901958
994.24627686	2.60784316
994.24627686	2.64705873
994.25024414	2.66666675
994.25433350	2.68627453
994.25848389	2.66666675
994.26263428	2.62745094
994.26263428	2.64705873
994.26678467	2.62745094
994.27075195	2.58823538
994.27502441	2.58823538
994.27502441	2.56862736
994.27905273	2.52941179
994.28314209	2.54901958
994.28717041	2.49019599
994.29125977	2.50980401
994.29125977	2.49019599
994.29541016	2.52941179
994.29949951	2.66666675
994.30364990	2.54901958
994.30364990	2.56862736
994.30767822	2.54901958
994.31170654	2.60784316
994.31585693	2.58823538
994.32000732	2.58823538
994.32000732	2.66666675
994.32403564	2.64705873
994.32818604	2.54901958
994.33227539	2.49019599
994.33227539	2.54901958
994.33642578	2.68627453
994.34039307	2.60784316
994.34454346	2.60784316
994.34863281	2.50980401
994.34863281	2.47058821
994.35278320	2.50980401
994.35693359	2.56862736
994.36102295	2.62745094
994.36102295	2.62745094
994.36499023	2.54901958
994.36907959	2.50980401
994.37329102	2.49019599
994.37738037	2.50980401
994.37738037	2.54901958
994.38140869	2.62745094
994.38537598	2.56862736
994.38958740	2.52941179
994.38958740	2.54901958
994.39361572	2.56862736
994.39770508	2.62745094
994.40197754	2.66666675
994.40600586	2.62745094
994.41009521	2.62745094
994.41406250	2.58823538
994.41821289	2.60784316
994.41821289	2.64705873
994.42236328	2.64705873
994.42651367	2.58823538
994.43054199	2.56862736
994.43463135	2.60784316
994.43872070	2.60784316
994.44293213	2.66666675
994.44702148	2.62745094
994.44702148	2.56862736
994.45098877	2.52941179
994.45501709	2.52941179
994.45922852	2.50980401
994.46337891	2.52941179
994.46734619	2.60784316
994.47143555	2.49019599
994.47558594	2.49019599
994.47558594	2.49019599
994.47973633	2.49019599
994.48376465	2.50980401
994.48803711	2.47058821
994.49206543	2.45098042
994.49609375	2.49019599
994.50024414	2.49019599
994.50427246	2.50980401
994.50427246	2.52941179
994.50830078	2.49019599
994.51245117	2.49019599
994.51666260	2.52941179
994.52062988	2.58823538
994.52471924	2.56862736
994.52886963	2.56862736
994.53302002	2.52941179
994.53302002	2.52941179
994.53710938	2.56862736
994.54113770	2.60784316
994.54528809	2.58823538
994.54528809	2.54901958
994.54937744	2.54901958
994.55346680	2.52941179
994.55749512	2.54901958
994.56164551	2.60784316
994.56164551	2.64705873
994.56579590	2.62745094
994.56988525	2.60784316
994.57397461	2.60784316
994.57397461	2.64705873
994.57794189	2.66666675
994.58209229	2.66666675
994.58624268	2.62745094
994.59033203	2.60784316
994.59033203	2.60784316
994.59436035	2.60784316
994.59844971	2.62745094
994.60260010	2.66666675
994.60260010	2.66666675
994.60675049	2.64705873
994.61077881	2.62745094
994.61499023	2.64705873
994.61895752	2.66666675
994.61895752	2.68627453
994.62316895	2.66666675
994.62701416	2.66666675
994.63122559	2.64705873
994.63122559	2.60784316
994.63537598	2.62745094
994.63946533	2.64705873
994.64361572	2.66666675
994.64758301	2.62745094
994.64758301	2.58823538
994.65173340	2.56862736
994.65594482	2.58823538
994.66003418	2.60784316
994.66003418	2.62745094
994.66400146	2.60784316
994.66815186	2.56862736
994.67230225	2.56862736
994.67639160	2.58823538
994.67639160	2.62745094
994.68035889	2.62745094
994.68450928	2.62745094
994.68859863	2.58823538
994.68859863	2.56862736
994.69274902	2.56862736
994.69683838	2.58823538
994.70098877	2.62745094
994.70507813	2.64705873
994.70507813	2.60784316
994.70916748	2.56862736
994.71331787	2.56862736
994.71746826	2.58823538
994.71746826	2.62745094
994.72137451	2.64705873
994.72552490	2.60784316
994.72967529	2.56862736
994.73382568	2.54901958
994.73382568	2.56862736
994.73773193	2.60784316
994.74188232	2.62745094
994.74603271	2.60784316
994.74603271	2.58823538
994.75012207	2.54901958
994.75408936	2.56862736
994.75823975	2.58823538
994.76232910	2.58823538
994.76232910	2.58823538
994.76654053	2.60784316
994.77050781	2.58823538
994.77459717	2.56862736
994.77459717	2.60784316
994.77868652	2.64705873
994.78289795	2.64705873
994.78698730	2.60784316
994.79101563	2.56862736
994.79510498	2.54901958
994.79925537	2.58823538
994.80334473	2.58823538
994.80334473	2.56862736
994.80743408	2.54901958
994.81140137	2.52941179
994.81561279	2.52941179
994.81970215	2.58823538
994.82373047	2.58823538
994.82800293	2.52941179
994.83197021	2.52941179
994.83197021	2.50980401
994.83612061	2.58823538
994.84027100	2.60784316
994.84429932	2.62745094
994.84838867	2.60784316
994.85253906	2.58823538
994.85662842	2.62745094
994.86077881	2.64705873
994.86077881	2.70588231
994.86474609	2.70588231
994.86883545	2.62745094
994.87298584	2.62745094
994.87719727	2.68627453
994.88116455	2.64705873
994.88525391	2.60784316
994.88940430	2.52941179
994.88940430	2.49019599
994.89355469	2.49019599
994.89752197	2.52941179
994.90167236	2.54901958
994.90576172	2.56862736
994.90991211	2.56862736
994.91400146	2.54901958
994.91802979	2.56862736
994.91802979	2.60784316
994.92218018	2.60784316
994.92626953	2.60784316
994.93041992	2.56862736
994.93041992	2.56862736
994.93438721	2.54901958
994.93847656	2.58823538
994.94262695	2.58823538
994.94677734	2.60784316
994.94677734	2.58823538
994.95074463	2.56862736
994.95495605	2.56862736
994.95898438	2.60784316
994.95898438	2.64705873
994.96307373	2.64705873
994.96716309	2.60784316
994.97119141	2.54901958
994.97534180	2.56862736
994.97534180	2.58823538
994.97949219	2.62745094
994.98364258	2.62745094
994.98779297	2.62745094
994.98779297	2.58823538
994.99182129	2.58823538
994.99591064	2.62745094
995.00000000	2.62745094
995.00408936	2.66666675
995.00408936	2.66666675
995.00817871	2.62745094
995.01226807	2.62745094
995.01635742	2.62745094
995.01635742	2.66666675
995.02050781	2.68627453
995.02453613	2.70588231
995.02862549	2.68627453
995.03271484	2.68627453
995.03271484	2.66666675
995.03686523	2.70588231
995.04095459	2.72549009
995.04498291	2.74509811
995.04498291	2.74509811
995.04907227	2.70588231
995.05322266	2.70588231
995.05725098	2.70588231
995.06140137	2.74509811
995.06140137	2.72549009
995.06549072	2.72549009
995.06958008	2.70588231
995.07373047	2.70588231
995.07373047	2.72549009
995.07781982	2.74509811
995.08190918	2.76470590
995.08599854	2.74509811
995.09008789	2.70588231
995.09008789	2.66666675
995.09411621	2.68627453
995.09826660	2.70588231
995.10235596	2.70588231
995.10235596	2.70588231
995.10644531	2.68627453
995.11053467	2.66666675
995.11462402	2.66666675
995.11877441	2.70588231
995.11877441	2.72549009
