1510.22900391	2.52941179
1510.23303223	2.50980401
1510.23718262	2.52941179
1510.23718262	2.50980401
1510.24133301	2.47058821
1510.24536133	2.33333325
1510.24951172	2.31372547
1510.25366211	2.45098042
1510.25366211	2.56862736
1510.25769043	2.62745094
1510.26171875	2.54901958
1510.26586914	2.50980401
1510.26586914	2.47058821
1510.26989746	2.41176462
1510.27392578	2.29411769
1510.27807617	2.29411769
1510.28222656	2.37254906
1510.28222656	2.41176462
1510.28649902	2.39215684
1510.29040527	2.41176462
1510.29455566	2.56862736
1510.29455566	2.60784316
1510.29870605	2.39215684
1510.30273438	2.29411769
1510.30676270	2.45098042
1510.31091309	2.56862736
1510.31091309	2.60784316
1510.31506348	2.62745094
1510.31921387	2.62745094
1510.32336426	2.54901958
1510.32336426	2.47058821
1510.32727051	2.49019599
1510.33142090	2.54901958
1510.33557129	2.56862736
1510.33972168	2.52941179
1510.33972168	2.31372547
1510.34362793	2.33333325
1510.34777832	2.45098042
1510.35192871	2.54901958
1510.35192871	2.54901958
1510.35607910	2.43137264
1510.35998535	2.29411769
1510.36425781	2.31372547
1510.36828613	2.41176462
1510.36828613	2.45098042
1510.37243652	2.52941179
1510.37658691	2.58823538
1510.38061523	2.58823538
1510.38061523	2.52941179
1510.38476563	2.47058821
1510.38879395	2.47058821
1510.39294434	2.54901958
1510.39685059	2.35294127
1510.40112305	2.29411769
1510.40515137	2.33333325
1510.40930176	2.39215684
1510.40930176	2.47058821
1510.41320801	2.62745094
1510.41760254	2.60784316
1510.42150879	2.47058821
1510.42565918	2.29411769
1510.42980957	2.13725495
1510.43383789	2.25490189
1510.43786621	2.33333325
1510.43786621	2.47058821
1510.44201660	2.49019599
1510.44616699	2.49019599
1510.45031738	2.54901958
1510.45434570	2.41176462
1510.45837402	2.35294127
1510.46252441	2.45098042
1510.46667480	2.56862736
1510.46667480	2.60784316
1510.47070313	2.62745094
1510.47485352	2.64705873
1510.47888184	2.60784316
1510.48303223	2.49019599
1510.48706055	2.47058821
1510.49133301	2.49019599
1510.49523926	2.60784316
1510.49523926	2.68627453
1510.49938965	2.62745094
1510.50341797	2.52941179
1510.50756836	2.50980401
1510.51159668	2.45098042
1510.51574707	2.49019599
1510.51977539	2.49019599
1510.52380371	2.49019599
1510.52380371	2.49019599
1510.52795410	2.47058821
1510.53222656	2.49019599
1510.53625488	2.43137264
1510.54028320	2.25490189
1510.54443359	2.21568632
1510.54858398	2.39215684
1510.55273438	2.54901958
1510.55273438	2.60784316
1510.55664063	2.58823538
1510.56079102	2.52941179
1510.56494141	2.43137264
1510.56494141	2.21568632
1510.56909180	2.35294127
1510.57324219	2.49019599
1510.57727051	2.60784316
1510.58129883	2.60784316
1510.58129883	2.56862736
1510.58544922	2.47058821
1510.58947754	2.49019599
1510.59362793	2.52941179
1510.59362793	2.54901958
1510.59765625	2.47058821
1510.60180664	2.39215684
1510.60595703	2.33333325
1510.60998535	2.43137264
1510.60998535	2.56862736
1510.61401367	2.62745094
1510.61828613	2.56862736
1510.62231445	2.52941179
1510.62231445	2.45098042
1510.62646484	2.49019599
1510.63037109	2.54901958
1510.63452148	2.49019599
1510.63867188	2.49019599
1510.63867188	2.60784316
1510.64270020	2.64705873
1510.64685059	2.68627453
1510.65087891	2.68627453
1510.65087891	2.70588231
1510.65502930	2.68627453
1510.65917969	2.60784316
1510.66320801	2.54901958
1510.66735840	2.54901958
1510.66735840	2.60784316
1510.67138672	2.64705873
1510.67553711	2.68627453
1510.67968750	2.49019599
1510.67968750	2.49019599
1510.68371582	2.58823538
1510.68786621	2.56862736
1510.69189453	2.52941179
1510.69604492	2.54901958
1510.69604492	2.58823538
1510.70007324	2.56862736
1510.70434570	2.52941179
1510.70837402	2.54901958
1510.70837402	2.56862736
1510.71240234	2.56862736
1510.71655273	2.41176462
1510.72058105	2.29411769
1510.72473145	2.31372547
1510.72473145	2.41176462
1510.72875977	2.47058821
1510.73291016	2.47058821
1510.73706055	2.47058821
1510.73706055	2.45098042
1510.74108887	2.43137264
1510.74523926	2.41176462
1510.74938965	2.49019599
1510.75341797	2.49019599
1510.75341797	2.49019599
1510.75744629	2.49019599
1510.76159668	2.43137264
1510.76562500	2.37254906
1510.76562500	2.39215684
1510.76977539	2.45098042
1510.77380371	2.50980401
1510.77795410	2.47058821
1510.78210449	2.39215684
1510.78210449	2.41176462
1510.78613281	2.45098042
1510.79028320	2.49019599
1510.79431152	2.58823538
1510.79431152	2.54901958
1510.79846191	2.52941179
1510.80261230	2.50980401
1510.80676270	2.31372547
1510.81066895	2.43137264
1510.81481934	2.54901958
1510.81896973	2.54901958
1510.82312012	2.50980401
1510.82312012	2.52941179
1510.82702637	2.54901958
1510.83129883	2.56862736
1510.83532715	2.54901958
1510.83947754	2.54901958
1510.84338379	2.56862736
1510.84753418	2.62745094
1510.85168457	2.58823538
1510.85168457	2.60784316
1510.85583496	2.60784316
1510.85998535	2.54901958
1510.86389160	2.58823538
1510.86791992	2.56862736
1510.87207031	2.50980401
1510.87622070	2.52941179
1510.88037109	2.52941179
1510.88037109	2.47058821
1510.88439941	2.47058821
1510.88854980	2.43137264
1510.89270020	2.39215684
1510.89685059	2.45098042
1510.90087891	2.52941179
1510.90490723	2.54901958
1510.90905762	2.52941179
1510.90905762	2.56862736
1510.91320801	2.58823538
1510.91723633	2.54901958
1510.92126465	2.41176462
1510.92541504	2.45098042
1510.92956543	2.54901958
1510.93359375	2.62745094
1510.93762207	2.62745094
1510.93762207	2.45098042
1510.94177246	2.39215684
1510.94592285	2.41176462
1510.95007324	2.58823538
1510.95007324	2.74509811
1510.95410156	2.90196085
1510.95825195	2.76470590
1510.96228027	2.64705873
1510.96643066	2.58823538
1510.96643066	2.52941179
1510.97045898	2.47058821
1510.97460938	2.45098042
1510.97863770	2.45098042
1510.97863770	2.49019599
1510.98278809	2.50980401
1510.98681641	2.54901958
1510.99096680	2.60784316
1510.99499512	2.62745094
1510.99499512	2.56862736
1510.99914551	2.47058821
1511.00329590	2.43137264
1511.00732422	2.43137264
1511.00732422	2.43137264
1511.01147461	2.49019599
1511.01562500	2.54901958
1511.01965332	2.45098042
1511.02380371	2.43137264
1511.02380371	2.47058821
1511.02783203	2.54901958
1511.03198242	2.58823538
1511.03601074	2.60784316
1511.03601074	2.62745094
1511.04003906	2.62745094
1511.04431152	2.58823538
1511.04833984	2.50980401
1511.05236816	2.50980401
1511.05236816	2.47058821
1511.05651855	2.43137264
1511.06054688	2.45098042
1511.06469727	2.49019599
1511.06469727	2.47058821
1511.06884766	2.45098042
1511.07299805	2.41176462
1511.07690430	2.25490189
1511.08105469	2.23529410
1511.08105469	2.35294127
1511.08520508	2.43137264
1511.08935547	2.54901958
1511.09338379	2.66666675
1511.09338379	2.72549009
1511.09741211	2.76470590
1511.10156250	2.66666675
1511.10571289	2.56862736
1511.10974121	2.58823538
1511.10974121	2.62745094
1511.11376953	2.64705873
1511.11791992	2.62745094
1511.12207031	2.56862736
1511.12207031	2.47058821
1511.12622070	2.49019599
1511.13024902	2.54901958
1511.13439941	2.58823538
1511.13842773	2.60784316
1511.13842773	2.52941179
1511.14257813	2.39215684
1511.14672852	2.39215684
1511.15087891	2.54901958
1511.15087891	2.58823538
1511.15478516	2.56862736
1511.15893555	2.49019599
1511.16308594	2.47058821
1511.16711426	2.49019599
1511.16711426	2.47058821
1511.17126465	2.50980401
1511.17529297	2.49019599
1511.17944336	2.47058821
1511.17944336	2.47058821
1511.18347168	2.43137264
1511.18750000	2.43137264
1511.19165039	2.43137264
1511.19580078	2.41176462
1511.19995117	2.37254906
1511.20385742	2.39215684
1511.20800781	2.35294127
1511.20800781	2.29411769
1511.21203613	2.37254906
1511.21630859	2.45098042
1511.22033691	2.52941179
1511.22436523	2.49019599
1511.22851563	2.45098042
1511.23266602	2.35294127
1511.23669434	2.37254906
1511.23669434	2.50980401
1511.24072266	2.54901958
1511.24487305	2.47058821
1511.24902344	2.49019599
1511.25305176	2.47058821
1511.25720215	2.58823538
1511.26123047	2.68627453
1511.26538086	2.54901958
1511.26538086	2.45098042
1511.26953125	2.41176462
1511.27355957	2.47058821
1511.27758789	2.54901958
1511.28173828	2.03921580
1511.28588867	2.31372547
1511.29003906	2.52941179
1511.29418945	2.60784316
1511.29418945	2.60784316
1511.29821777	2.60784316
1511.30224609	2.58823538
1511.30639648	2.52941179
1511.31042480	2.39215684
1511.31457520	2.39215684
1511.31860352	2.45098042
1511.32275391	2.50980401
1511.32275391	2.54901958
1511.32690430	2.50980401
1511.33093262	2.47058821
1511.33496094	2.54901958
1511.33496094	2.56862736
1511.33911133	2.39215684
1511.34326172	2.35294127
1511.34716797	2.41176462
1511.35131836	2.62745094
1511.35131836	2.64705873
1511.35546875	2.60784316
1511.35961914	2.52941179
1511.36376953	2.47058821
1511.36376953	2.45098042
1511.36767578	2.39215684
1511.37182617	2.39215684
1511.37597656	2.41176462
1511.38012695	2.41176462
1511.38012695	2.39215684
1511.38427734	2.39215684
1511.38818359	2.45098042
1511.39233398	2.49019599
1511.39233398	2.50980401
1511.39636230	2.49019599
1511.40051270	2.45098042
1511.40454102	2.35294127
1511.40869141	2.37254906
1511.40869141	2.35294127
1511.41271973	2.21568632
1511.41687012	2.29411769
1511.42102051	2.21568632
1511.42102051	2.35294127
1511.42517090	2.43137264
1511.42919922	2.56862736
1511.43334961	2.62745094
1511.43737793	2.66666675
1511.43737793	2.76470590
1511.44152832	2.70588231
1511.44567871	2.58823538
1511.44982910	2.52941179
1511.44982910	2.52941179
1511.45373535	2.50980401
1511.45788574	2.47058821
1511.46203613	2.49019599
1511.46606445	2.49019599
1511.46606445	2.50980401
1511.47033691	2.47058821
1511.47436523	2.52941179
1511.47839355	2.56862736
1511.47839355	2.52941179
1511.48242188	2.47058821
1511.48669434	2.49019599
1511.49060059	2.49019599
1511.49475098	2.56862736
1511.49475098	2.60784316
1511.49890137	2.54901958
1511.50305176	2.45098042
1511.50720215	2.43137264
1511.50720215	2.45098042
1511.51123047	2.49019599
1511.51525879	2.49019599
1511.51940918	2.49019599
1511.52355957	2.50980401
1511.52355957	2.49019599
1511.52758789	2.37254906
1511.53161621	2.52941179
1511.53576660	2.60784316
1511.53576660	2.52941179
1511.53991699	2.58823538
1511.54394531	2.58823538
1511.54809570	2.54901958
1511.55200195	2.50980401
1511.55200195	2.54901958
1511.55627441	2.56862736
1511.56030273	2.54901958
1511.56445313	2.54901958
1511.56445313	2.54901958
1511.56848145	2.54901958
1511.57263184	2.56862736
1511.57678223	2.56862736
1511.58068848	2.52941179
1511.58496094	2.50980401
1511.58911133	2.49019599
1511.59313965	2.50980401
1511.59313965	2.43137264
1511.59729004	2.33333325
1511.60131836	2.39215684
1511.60534668	2.41176462
1511.60949707	2.43137264
1511.61352539	2.49019599
1511.61767578	2.52941179
1511.62170410	2.58823538
1511.62170410	2.60784316
1511.62597656	2.62745094
1511.63000488	2.72549009
1511.63403320	2.66666675
1511.63830566	2.50980401
1511.64221191	2.45098042
1511.64648438	2.31372547
1511.65051270	2.33333325
1511.65051270	2.45098042
1511.65454102	2.54901958
1511.65856934	2.56862736
1511.66271973	2.49019599
1511.66687012	2.49019599
1511.67077637	2.58823538
1511.67504883	2.58823538
1511.67919922	2.52941179
1511.67919922	2.50980401
1511.68334961	2.52941179
1511.68725586	2.50980401
1511.69140625	2.54901958
1511.69140625	2.56862736
1511.69555664	2.50980401
1511.69970703	2.45098042
1511.70361328	2.43137264
1511.70776367	2.49019599
1511.70776367	2.47058821
1511.71191406	2.52941179
1511.71606445	2.50980401
1511.72009277	2.43137264
1511.72009277	2.33333325
1511.72424316	2.35294127
1511.72827148	2.37254906
1511.73242188	2.45098042
1511.73669434	2.45098042
1511.73669434	2.52941179
1511.74047852	2.62745094
1511.74462891	2.56862736
1511.74902344	2.50980401
1511.74902344	2.33333325
1511.75292969	2.27450991
1511.75695801	2.09803915
1511.76098633	2.07843137
1511.76538086	2.33333325
1511.76538086	2.50980401
1511.76916504	2.56862736
1511.77343750	2.52941179
1511.77746582	2.54901958
1511.77746582	2.50980401
1511.78149414	2.49019599
1511.78552246	2.52941179
1511.78979492	2.54901958
1511.79394531	2.54901958
1511.79394531	2.47058821
1511.79797363	2.41176462
1511.80200195	2.37254906
1511.80615234	2.39215684
1511.80615234	2.47058821
1511.81030273	2.56862736
1511.81420898	2.58823538
1511.81835938	2.50980401
1511.82250977	2.47058821
1511.82250977	2.49019599
1511.82666016	2.54901958
1511.83068848	2.50980401
1511.83483887	2.58823538
1511.83483887	2.62745094
1511.83898926	2.56862736
1511.84301758	2.47058821
1511.84704590	2.49019599
1511.85131836	2.50980401
1511.85131836	2.52941179
1511.85522461	2.49019599
1511.85949707	2.49019599
1511.86352539	2.39215684
1511.86352539	2.33333325
1511.86755371	2.35294127
1511.87158203	2.39215684
1511.87585449	2.43137264
1511.87988281	2.43137264
1511.87988281	2.41176462
1511.88391113	2.39215684
1511.88806152	2.41176462
1511.89221191	2.45098042
1511.89221191	2.45098042
1511.89636230	2.43137264
1511.90039063	2.41176462
1511.90441895	2.41176462
1511.90856934	2.41176462
1511.90856934	2.41176462
1511.91271973	2.33333325
1511.91674805	2.13725495
1511.92089844	2.31372547
1511.92089844	2.50980401
1511.92492676	2.60784316
1511.92907715	2.49019599
1511.93322754	2.50980401
1511.93713379	2.56862736
1511.93713379	2.62745094
1511.94116211	2.62745094
1511.94543457	2.72549009
1511.94958496	2.74509811
1511.94958496	2.66666675
1511.95361328	2.58823538
1511.95764160	2.50980401
1511.96179199	2.43137264
1511.96594238	2.47058821
1511.97009277	2.45098042
1511.97412109	2.47058821
1511.97827148	2.49019599
1511.97827148	2.50980401
1511.98229980	2.43137264
1511.98632813	2.41176462
1511.99060059	2.43137264
1511.99450684	2.49019599
1511.99865723	2.49019599
1512.00280762	2.47058821
1512.00695801	2.43137264
1512.00695801	2.41176462
1512.01086426	2.39215684
1512.01501465	2.43137264
1512.01916504	2.29411769
1512.02319336	2.39215684
1512.02722168	2.43137264
1512.03137207	2.47058821
1512.03552246	2.52941179
1512.03552246	2.47058821
1512.03967285	2.45098042
1512.04382324	2.45098042
1512.04785156	2.31372547
1512.05187988	2.37254906
1512.05603027	2.35294127
1512.06018066	2.37254906
1512.06445313	2.43137264
1512.06445313	2.47058821
1512.06823730	2.50980401
1512.07238770	2.52941179
1512.07653809	2.54901958
1512.08068848	2.52941179
1512.08459473	2.45098042
1512.08874512	2.50980401
1512.09289551	2.56862736
1512.09289551	2.58823538
1512.09704590	2.54901958
1512.10107422	2.50980401
1512.10534668	2.54901958
1512.10534668	2.54901958
1512.10925293	2.43137264
1512.11340332	2.43137264
1512.11743164	2.49019599
1512.12145996	2.49019599
1512.12145996	2.49019599
1512.12561035	2.50980401
1512.12988281	2.54901958
1512.13391113	2.49019599
1512.13391113	2.27450991
1512.13793945	2.17647052
1512.14208984	2.33333325
1512.14624023	2.43137264
1512.15039063	2.43137264
1512.15039063	2.43137264
1512.15429688	2.43137264
1512.15844727	2.39215684
1512.16259766	2.35294127
1512.16259766	2.37254906
1512.16674805	2.43137264
1512.17065430	2.41176462
1512.17480469	2.41176462
1512.17895508	2.45098042
1512.17895508	2.41176462
1512.18298340	2.41176462
1512.18713379	2.15686274
1512.19128418	2.07843137
1512.19128418	2.35294127
1512.19531250	2.49019599
1512.19946289	2.52941179
1512.20349121	2.54901958
1512.20764160	2.56862736
1512.20764160	2.56862736
1512.21166992	2.58823538
1512.21582031	2.54901958
1512.21984863	2.45098042
1512.21984863	2.45098042
1512.22387695	2.47058821
1512.22802734	2.54901958
1512.23205566	2.58823538
1512.23620605	2.56862736
1512.23620605	2.54901958
1512.24035645	2.52941179
1512.24438477	2.47058821
1512.24853516	2.43137264
1512.24853516	2.39215684
1512.25256348	2.43137264
1512.25671387	2.41176462
1512.26074219	2.45098042
1512.26489258	2.49019599
1512.26489258	2.39215684
1512.26904297	2.39215684
1512.27319336	2.52941179
1512.27734375	2.56862736
1512.27734375	2.58823538
1512.28125000	2.54901958
1512.28564453	2.47058821
1512.28955078	2.43137264
1512.29370117	2.45098042
1512.29370117	2.58823538
1512.29760742	2.60784316
1512.30175781	2.47058821
1512.30590820	2.45098042
1512.30590820	2.49019599
1512.31005859	2.54901958
1512.31396484	2.62745094
1512.31823730	2.58823538
1512.32226563	2.54901958
1512.32226563	2.50980401
1512.32641602	2.45098042
1512.33044434	2.19607854
1512.33459473	2.25490189
1512.33459473	2.43137264
1512.33874512	2.54901958
1512.34277344	2.52941179
1512.34692383	2.52941179
1512.35095215	2.52941179
1512.35510254	2.52941179
1512.35913086	2.49019599
1512.36328125	2.39215684
1512.36328125	2.41176462
1512.36730957	2.49019599
1512.37133789	2.56862736
1512.37561035	2.43137264
1512.37963867	2.49019599
1512.38378906	2.52941179
1512.38769531	2.54901958
1512.39184570	2.62745094
1512.39184570	2.64705873
1512.39599609	2.60784316
1512.40014648	2.56862736
1512.40429688	2.52941179
1512.40820313	2.50980401
1512.41235352	2.62745094
1512.41650391	2.60784316
1512.42065430	2.54901958
1512.42065430	2.50980401
1512.42456055	2.45098042
1512.42871094	2.37254906
1512.43286133	2.37254906
1512.43701172	2.47058821
1512.44104004	2.49019599
1512.44519043	2.29411769
1512.44921875	2.39215684
1512.44921875	2.58823538
1512.45336914	2.62745094
1512.45739746	2.62745094
1512.46154785	2.56862736
1512.46569824	2.52941179
1512.46984863	2.47058821
1512.47387695	2.47058821
1512.47790527	2.31372547
1512.47790527	2.37254906
1512.48205566	2.50980401
1512.48608398	2.58823538
1512.49023438	2.56862736
1512.49023438	2.60784316
1512.49426270	2.60784316
1512.49841309	2.52941179
1512.50244141	2.56862736
1512.50671387	2.60784316
1512.50671387	2.49019599
1512.51062012	2.45098042
1512.51477051	2.47058821
1512.51879883	2.47058821
1512.51879883	2.49019599
1512.52294922	2.50980401
1512.52709961	2.49019599
1512.53125000	2.47058821
1512.53527832	2.50980401
1512.53527832	2.49019599
1512.53942871	2.45098042
1512.54357910	2.47058821
1512.54772949	2.49019599
1512.54772949	2.49019599
1512.55163574	2.31372547
1512.55578613	2.37254906
1512.55993652	2.39215684
1512.56408691	2.50980401
1512.56408691	2.64705873
1512.56799316	2.74509811
1512.57202148	2.78431368
1512.57617188	2.80392146
1512.57617188	2.88235283
1512.58032227	2.74509811
1512.58435059	2.60784316
1512.58850098	2.54901958
1512.59265137	2.54901958
1512.59265137	2.56862736
1512.59667969	2.52941179
1512.60083008	2.49019599
1512.60485840	2.43137264
1512.60485840	2.45098042
1512.60900879	2.45098042
1512.61315918	2.52941179
1512.61730957	2.60784316
1512.62133789	2.60784316
1512.62133789	2.56862736
1512.62536621	2.58823538
1512.62951660	2.56862736
1512.63366699	2.52941179
1512.63366699	2.45098042
1512.63769531	2.49019599
1512.64172363	2.47058821
1512.64587402	2.54901958
1512.65014648	2.56862736
1512.65014648	2.54901958
1512.65417480	2.45098042
1512.65832520	2.50980401
1512.66223145	2.41176462
1512.66223145	2.27450991
1512.66650391	2.37254906
1512.67053223	2.47058821
1512.67456055	2.56862736
1512.67871094	2.62745094
1512.67871094	2.58823538
1512.68273926	2.50980401
1512.68676758	2.47058821
1512.69091797	2.52941179
1512.69091797	2.58823538
1512.69494629	2.58823538
1512.69909668	2.54901958
1512.70324707	2.54901958
1512.70739746	2.49019599
1512.70739746	2.45098042
1512.71130371	2.47058821
1512.71557617	2.50980401
1512.71960449	2.43137264
1512.71960449	2.43137264
1512.72375488	2.45098042
1512.72778320	2.52941179
1512.73193359	2.60784316
1512.73596191	2.62745094
1512.74011230	2.56862736
1512.74426270	2.54901958
1512.74816895	2.58823538
1512.74816895	2.62745094
1512.75231934	2.62745094
1512.75646973	2.70588231
1512.76062012	2.68627453
1512.76464844	2.49019599
1512.76867676	2.41176462
1512.77282715	2.39215684
1512.77697754	2.50980401
1512.77697754	2.54901958
1512.78100586	2.54901958
1512.78527832	2.56862736
1512.78930664	2.60784316
1512.79333496	2.60784316
1512.79736328	2.54901958
1512.80151367	2.47058821
1512.80566406	2.43137264
1512.80566406	2.27450991
1512.80981445	2.47058821
1512.81396484	2.64705873
1512.81787109	2.62745094
1512.82202148	2.41176462
1512.82617188	2.41176462
1512.83020020	2.39215684
1512.83447266	2.45098042
1512.83447266	2.52941179
1512.83837891	2.52941179
1512.84252930	2.50980401
1512.84667969	2.54901958
1512.85083008	2.72549009
1512.85473633	2.80392146
1512.85888672	2.70588231
1512.86303711	2.52941179
1512.86303711	2.37254906
1512.86718750	2.41176462
1512.87121582	2.49019599
1512.87524414	2.54901958
1512.87524414	2.60784316
1512.87939453	2.54901958
1512.88354492	2.45098042
1512.88745117	2.43137264
1512.89160156	2.37254906
1512.89160156	2.31372547
1512.89575195	2.41176462
1512.89990234	2.47058821
1512.90405273	2.52941179
1512.90405273	2.52941179
1512.90808105	2.50980401
1512.91223145	2.50980401
1512.91638184	2.54901958
1512.92041016	2.49019599
1512.92041016	2.45098042
1512.92456055	2.41176462
1512.92858887	2.15686274
1512.93273926	2.27450991
1512.93273926	2.47058821
1512.93676758	2.60784316
1512.94091797	2.60784316
1512.94494629	2.56862736
1512.94909668	2.54901958
1512.94909668	2.54901958
1512.95312500	2.54901958
1512.95727539	2.52941179
1512.96130371	2.47058821
1512.96130371	2.54901958
1512.96545410	2.50980401
1512.96960449	2.49019599
1512.97363281	2.47058821
1512.97778320	2.47058821
1512.97778320	2.45098042
1512.98181152	2.43137264
1512.98596191	2.45098042
1512.98999023	2.45098042
1512.98999023	2.49019599
1512.99414063	2.49019599
1512.99829102	2.47058821
1513.00219727	2.41176462
1513.00634766	2.43137264
1513.00634766	2.41176462
1513.01062012	2.21568632
1513.01452637	2.31372547
1513.01867676	2.45098042
1513.01867676	2.49019599
1513.02270508	2.43137264
1513.02685547	2.45098042
1513.03088379	2.50980401
1513.03503418	2.56862736
1513.03503418	2.58823538
1513.03918457	2.50980401
1513.04321289	2.45098042
1513.04736328	2.45098042
1513.04736328	2.54901958
1513.05139160	2.60784316
1513.05554199	2.60784316
1513.05969238	2.58823538
1513.06384277	2.52941179
1513.06384277	2.50980401
1513.06774902	2.58823538
1513.07189941	2.58823538
1513.07604980	2.37254906
1513.07604980	2.27450991
1513.08020020	2.39215684
1513.08422852	2.49019599
1513.08813477	2.49019599
1513.09240723	2.52941179
1513.09643555	2.52941179
1513.10070801	2.49019599
1513.10473633	2.45098042
1513.10473633	2.45098042
1513.10876465	2.49019599
1513.11291504	2.54901958
1513.11706543	2.54901958
1513.12097168	2.35294127
1513.12524414	2.35294127
1513.12927246	2.45098042
1513.13342285	2.47058821
1513.13342285	2.33333325
1513.13745117	2.41176462
1513.14147949	2.49019599
1513.14562988	2.54901958
1513.14978027	2.52941179
1513.15393066	2.54901958
1513.15783691	2.50980401
1513.16198730	2.43137264
1513.16198730	2.47058821
1513.16613770	2.43137264
1513.17028809	2.45098042
1513.17443848	2.52941179
1513.17846680	2.54901958
1513.18249512	2.50980401
1513.18664551	2.39215684
1513.19079590	2.43137264
1513.19079590	2.50980401
1513.19482422	2.60784316
1513.19885254	2.58823538
1513.20300293	2.50980401
1513.20715332	2.50980401
1513.21118164	2.60784316
1513.21520996	2.64705873
1513.21936035	2.62745094
1513.21936035	2.54901958
1513.22351074	2.52941179
1513.22753906	2.49019599
1513.23168945	2.52941179
1513.23168945	2.47058821
1513.23583984	2.35294127
1513.23999023	2.33333325
1513.24401855	2.43137264
1513.24816895	2.45098042
1513.24816895	2.50980401
1513.25219727	2.52941179
1513.25622559	2.52941179
1513.26037598	2.58823538
1513.26037598	2.66666675
1513.26440430	2.58823538
1513.26855469	2.50980401
1513.27258301	2.49019599
1513.27685547	2.47058821
1513.27685547	2.45098042
1513.28100586	2.41176462
1513.28491211	2.37254906
1513.28906250	2.39215684
1513.28906250	2.41176462
1513.29321289	2.47058821
1513.29724121	2.50980401
1513.30126953	2.52941179
1513.30541992	2.56862736
1513.30541992	2.58823538
1513.30957031	2.62745094
1513.31359863	2.56862736
1513.31774902	2.35294127
1513.31774902	2.37254906
1513.32177734	2.45098042
1513.32592773	2.52941179
1513.32995605	2.58823538
1513.33422852	2.49019599
1513.33422852	2.25490189
1513.33825684	2.47058821
1513.34228516	2.62745094
1513.34643555	2.62745094
1513.34643555	2.56862736
1513.35058594	2.54901958
1513.35449219	2.49019599
1513.35864258	2.45098042
1513.36279297	2.41176462
1513.36279297	2.39215684
1513.36694336	2.39215684
1513.37097168	2.41176462
1513.37500000	2.45098042
1513.37500000	2.45098042
1513.37915039	2.39215684
1513.38330078	2.39215684
1513.38732910	2.29411769
1513.39147949	2.21568632
1513.39147949	2.37254906
1513.39550781	2.49019599
1513.39965820	2.50980401
1513.40368652	2.45098042
1513.40368652	2.43137264
1513.40783691	2.45098042
1513.41186523	2.47058821
1513.41601563	2.47058821
1513.42004395	2.43137264
1513.42004395	2.39215684
1513.42419434	2.41176462
1513.42822266	2.41176462
1513.43237305	2.39215684
1513.43237305	2.35294127
1513.43640137	2.39215684
1513.44055176	2.43137264
1513.44458008	2.43137264
1513.44885254	2.35294127
1513.44885254	2.27450991
1513.45288086	2.33333325
1513.45703125	2.45098042
1513.46118164	2.49019599
1513.46118164	2.47058821
1513.46533203	2.52941179
1513.46936035	2.52941179
1513.47338867	2.50980401
1513.47753906	2.47058821
1513.48156738	2.45098042
1513.48571777	2.45098042
1513.48974609	2.50980401
1513.48974609	2.52941179
1513.49389648	2.47058821
1513.49804688	2.47058821
1513.50195313	2.41176462
1513.50610352	2.43137264
1513.51037598	2.25490189
1513.51428223	2.13725495
1513.51843262	2.31372547
1513.51843262	2.43137264
1513.52246094	2.41176462
1513.52661133	2.45098042
1513.53088379	2.49019599
1513.53479004	2.52941179
1513.53894043	2.45098042
1513.54296875	2.37254906
1513.54711914	2.39215684
1513.54711914	2.47058821
1513.55126953	2.52941179
1513.55517578	2.56862736
1513.55944824	2.54901958
1513.56347656	2.45098042
1513.56762695	2.49019599
1513.57165527	2.49019599
1513.57568359	2.45098042
1513.57568359	2.47058821
1513.57983398	2.47058821
1513.58410645	2.47058821
1513.58801270	2.49019599
1513.59228516	2.52941179
1513.59631348	2.56862736
1513.60046387	2.43137264
1513.60449219	2.37254906
1513.60449219	2.41176462
1513.60852051	2.52941179
1513.61267090	2.56862736
1513.61694336	2.56862736
1513.61694336	2.58823538
1513.62097168	2.54901958
1513.62487793	2.49019599
1513.62902832	2.47058821
1513.63317871	2.47058821
1513.63317871	2.54901958
1513.63720703	2.37254906
1513.64123535	2.25490189
1513.64538574	2.35294127
1513.64538574	2.50980401
1513.64953613	2.60784316
1513.65368652	2.64705873
1513.65771484	2.64705873
1513.66174316	2.31372547
1513.66174316	2.31372547
1513.66601563	2.49019599
1513.67004395	2.64705873
1513.67419434	2.66666675
1513.67419434	2.62745094
1513.67834473	2.58823538
1513.68225098	2.49019599
1513.68640137	2.45098042
1513.69042969	2.49019599
1513.69042969	2.58823538
1513.69458008	2.58823538
1513.69860840	2.54901958
1513.70275879	2.43137264
1513.70275879	2.43137264
1513.70690918	2.49019599
1513.71093750	2.52941179
1513.71496582	2.52941179
1513.71923828	2.52941179
1513.71923828	2.45098042
1513.72326660	2.37254906
1513.72741699	2.35294127
1513.73144531	2.33333325
1513.73144531	2.39215684
1513.73547363	2.45098042
1513.73962402	2.49019599
1513.74377441	2.45098042
1513.74792480	2.41176462
1513.74792480	2.37254906
1513.75195313	2.49019599
1513.75598145	2.54901958
1513.76013184	2.43137264
1513.76013184	2.41176462
1513.76428223	2.45098042
1513.76831055	2.43137264
1513.77233887	2.45098042
1513.77648926	2.45098042
1513.77648926	2.49019599
1513.78063965	2.47058821
1513.78466797	2.45098042
1513.78881836	2.37254906
1513.78881836	2.33333325
1513.79296875	2.25490189
1513.79699707	2.17647052
1513.80114746	2.29411769
1513.80529785	2.41176462
1513.80529785	2.47058821
1513.80932617	2.47058821
1513.81335449	2.52941179
1513.81762695	2.64705873
1513.81762695	2.62745094
1513.82153320	2.56862736
1513.82556152	2.52941179
1513.82971191	2.52941179
1513.83398438	2.62745094
1513.83398438	2.64705873
1513.83789063	2.50980401
1513.84204102	2.39215684
1513.84631348	2.37254906
1513.84631348	2.41176462
1513.85021973	2.43137264
1513.85437012	2.43137264
1513.85839844	2.41176462
1513.86254883	2.39215684
1513.86669922	2.43137264
1513.87084961	2.50980401
1513.87487793	2.56862736
1513.87487793	2.52941179
1513.87890625	2.49019599
1513.88305664	2.45098042
1513.88708496	2.50980401
1513.89123535	2.45098042
1513.89526367	2.45098042
1513.89941406	2.43137264
1513.90344238	2.37254906
1513.90344238	2.21568632
1513.90759277	2.29411769
1513.91162109	2.43137264
1513.91577148	2.50980401
1513.91992188	2.39215684
1513.92407227	2.43137264
1513.92797852	2.50980401
1513.93225098	2.58823538
1513.93225098	2.52941179
1513.93627930	2.49019599
1513.94042969	2.52941179
1513.94458008	2.56862736
1513.94860840	2.47058821
1513.95263672	2.33333325
1513.95678711	2.33333325
1513.96081543	2.19607854
1513.96081543	2.19607854
1513.96496582	2.39215684
1513.96899414	2.54901958
1513.97326660	2.58823538
1513.97729492	2.50980401
1513.98132324	2.39215684
1513.98535156	2.43137264
1513.98950195	2.50980401
1513.98950195	2.58823538
1513.99365234	2.58823538
1513.99768066	2.52941179
1514.00183105	2.45098042
1514.00183105	2.41176462
1514.00598145	2.47058821
1514.01000977	2.52941179
1514.01416016	2.62745094
1514.01831055	2.50980401
1514.01831055	2.43137264
1514.02221680	2.47058821
1514.02636719	2.50980401
1514.03051758	2.49019599
1514.03051758	2.41176462
1514.03454590	2.52941179
1514.03857422	2.60784316
1514.04272461	2.45098042
1514.04687500	2.29411769
1514.04687500	2.37254906
1514.05102539	2.56862736
1514.05493164	2.64705873
1514.05920410	2.56862736
1514.05920410	2.50980401
1514.06311035	2.50980401
1514.06738281	2.54901958
1514.07128906	2.54901958
1514.07556152	2.54901958
1514.07556152	2.54901958
1514.07958984	2.49019599
1514.08386230	2.45098042
1514.08789063	2.27450991
1514.08789063	2.23529410
1514.09179688	2.39215684
1514.09606934	2.52941179
1514.10021973	2.54901958
1514.10424805	2.50980401
1514.10424805	2.45098042
1514.10827637	2.45098042
1514.11242676	2.47058821
1514.11657715	2.39215684
1514.11657715	2.33333325
1514.12072754	2.41176462
1514.12475586	2.47058821
1514.12878418	2.49019599
1514.13293457	2.62745094
1514.13293457	2.54901958
1514.13708496	2.29411769
1514.14111328	2.23529410
1514.14526367	2.43137264
1514.14526367	2.52941179
1514.14929199	2.54901958
1514.15332031	2.56862736
1514.15747070	2.60784316
1514.16162109	2.54901958
1514.16162109	2.50980401
1514.16564941	2.52941179
1514.16979980	2.54901958
1514.17395020	2.58823538
1514.17395020	2.58823538
1514.17810059	2.54901958
1514.18200684	2.47058821
1514.18615723	2.47058821
1514.19030762	2.49019599
1514.19030762	2.52941179
1514.19433594	2.50980401
1514.19848633	2.45098042
1514.20251465	2.37254906
1514.20251465	2.35294127
1514.20666504	2.41176462
1514.21081543	2.52941179
1514.21484375	2.58823538
1514.21887207	2.60784316
1514.21887207	2.50980401
1514.22302246	2.49019599
1514.22717285	2.56862736
1514.23132324	2.58823538
1514.23132324	2.58823538
1514.23522949	2.19607854
1514.23937988	2.19607854
1514.24340820	2.29411769
1514.24755859	2.54901958
1514.25158691	2.56862736
1514.25573730	2.50980401
1514.26013184	2.52941179
1514.26013184	2.35294127
1514.26403809	2.41176462
1514.26806641	2.54901958
1514.27221680	2.62745094
1514.27624512	2.66666675
1514.28039551	2.66666675
1514.28454590	2.64705873
1514.28845215	2.64705873
1514.28845215	2.64705873
1514.29260254	2.66666675
1514.29675293	2.64705873
1514.30090332	2.56862736
1514.30480957	2.49019599
1514.30895996	2.54901958
1514.31311035	2.62745094
1514.31726074	2.70588231
1514.31726074	2.64705873
1514.32128906	2.56862736
1514.32531738	2.54901958
1514.32946777	2.52941179
1514.33361816	2.52941179
1514.33776855	2.50980401
1514.34167480	2.43137264
1514.34582520	2.45098042
1514.34582520	2.49019599
1514.34997559	2.56862736
1514.35412598	2.56862736
1514.35827637	2.52941179
1514.35827637	2.50980401
1514.36218262	2.43137264
1514.36645508	2.41176462
1514.37048340	2.43137264
1514.37463379	2.45098042
1514.37463379	2.45098042
1514.37866211	2.25490189
1514.38293457	2.19607854
1514.38684082	2.27450991
1514.38684082	2.37254906
1514.39099121	2.37254906
1514.39501953	2.43137264
1514.39929199	2.47058821
1514.40319824	2.50980401
1514.40319824	2.58823538
1514.40734863	2.56862736
1514.41137695	2.50980401
1514.41552734	2.52941179
1514.41552734	2.52941179
1514.41967773	2.50980401
1514.42382813	2.47058821
1514.42797852	2.47058821
1514.43188477	2.39215684
1514.43188477	2.41176462
1514.43603516	2.50980401
1514.44018555	2.52941179
1514.44421387	2.50980401
1514.44421387	2.41176462
1514.44824219	2.39215684
1514.45239258	2.45098042
1514.45654297	2.52941179
1514.46057129	2.54901958
1514.46057129	2.54901958
1514.46472168	2.50980401
1514.46875000	2.49019599
1514.47290039	2.50980401
1514.47290039	2.45098042
1514.47692871	2.45098042
1514.48120117	2.50980401
1514.48535156	2.52941179
1514.48925781	2.41176462
1514.48925781	2.39215684
1514.49340820	2.41176462
1514.49768066	2.45098042
1514.50170898	2.43137264
1514.50170898	2.37254906
1514.50561523	2.43137264
1514.50976563	2.41176462
1514.51403809	2.17647052
1514.51806641	2.13725495
1514.51806641	2.35294127
1514.52197266	2.54901958
1514.52612305	2.58823538
1514.53015137	2.56862736
1514.53015137	2.54901958
1514.53442383	2.52941179
1514.53833008	2.45098042
1514.54248047	2.29411769
1514.54650879	2.25490189
1514.54650879	2.31372547
1514.55078125	2.39215684
1514.55480957	2.45098042
1514.55895996	2.47058821
1514.55895996	2.47058821
1514.56311035	2.41176462
1514.56726074	2.41176462
1514.57128906	2.45098042
1514.57531738	2.50980401
1514.57531738	2.52941179
1514.57946777	2.50980401
1514.58361816	2.43137264
1514.58764648	2.41176462
1514.58764648	2.50980401
1514.59155273	2.47058821
1514.59570313	2.43137264
1514.59997559	2.43137264
1514.60400391	2.47058821
1514.60815430	2.47058821
1514.61230469	2.45098042
1514.61633301	2.50980401
1514.61633301	2.47058821
1514.62048340	2.43137264
1514.62451172	2.43137264
1514.62854004	2.35294127
1514.63269043	2.37254906
1514.63671875	2.45098042
1514.64086914	2.35294127
1514.64501953	2.07843137
1514.64501953	2.23529410
1514.64892578	2.50980401
1514.65319824	2.66666675
1514.65722656	2.60784316
1514.66137695	2.43137264
1514.66540527	2.47058821
1514.66955566	2.54901958
1514.67370605	2.52941179
1514.67370605	2.58823538
1514.67785645	2.50980401
1514.68176270	2.39215684
1514.68591309	2.33333325
1514.69006348	2.45098042
1514.69409180	2.50980401
1514.69824219	2.49019599
1514.70227051	2.39215684
1514.70227051	2.33333325
1514.70629883	2.39215684
1514.71044922	2.45098042
1514.71472168	2.50980401
1514.71862793	2.49019599
1514.72277832	2.45098042
1514.72692871	2.41176462
1514.73095703	2.43137264
1514.73095703	2.45098042
1514.73498535	2.50980401
1514.73925781	2.45098042
1514.74328613	2.41176462
1514.74328613	2.33333325
1514.74731445	2.25490189
1514.75146484	2.23529410
1514.75549316	2.23529410
1514.75952148	2.49019599
1514.75952148	2.52941179
1514.76379395	2.52941179
1514.76794434	2.56862736
1514.77197266	2.60784316
1514.77197266	2.58823538
1514.77600098	2.56862736
1514.78015137	2.37254906
1514.78430176	2.21568632
1514.78833008	2.37254906
1514.78833008	2.47058821
1514.79223633	2.54901958
1514.79650879	2.60784316
1514.80065918	2.58823538
1514.80065918	2.52941179
1514.80468750	2.49019599
1514.80871582	2.47058821
1514.81286621	2.49019599
1514.81689453	2.50980401
1514.81689453	2.45098042
1514.82104492	2.43137264
1514.82519531	2.45098042
1514.82922363	2.45098042
1514.82922363	2.43137264
1514.83325195	2.43137264
1514.83740234	2.43137264
1514.84155273	2.37254906
1514.84570313	2.33333325
1514.84570313	2.33333325
1514.84973145	2.41176462
1514.85388184	2.56862736
1514.85803223	2.56862736
1514.85803223	2.41176462
1514.86193848	2.35294127
1514.86621094	2.37254906
1514.87023926	2.29411769
1514.87438965	2.13725495
1514.87438965	2.31372547
1514.87841797	2.52941179
1514.88256836	2.54901958
1514.88659668	2.52941179
1514.88659668	2.56862736
1514.89074707	2.58823538
1514.89489746	2.64705873
1514.89892578	2.58823538
1514.90295410	2.31372547
1514.90295410	2.17647052
1514.90710449	2.37254906
1514.91125488	2.56862736
1514.91540527	2.62745094
1514.91540527	2.60784316
1514.91931152	2.52941179
1514.92346191	2.47058821
1514.92761230	2.47058821
1514.93176270	2.47058821
1514.93176270	2.45098042
1514.93579102	2.50980401
1514.93981934	2.58823538
1514.94396973	2.50980401
1514.94396973	2.45098042
1514.94812012	2.41176462
1514.95227051	2.45098042
1514.95629883	2.56862736
1514.96032715	2.52941179
1514.96032715	2.45098042
1514.96447754	2.49019599
1514.96850586	2.47058821
1514.97253418	2.50980401
1514.97253418	2.54901958
1514.97668457	2.39215684
1514.98083496	2.33333325
1514.98498535	2.43137264
1514.98901367	2.49019599
1514.98901367	2.52941179
1514.99304199	2.47058821
1514.99731445	2.49019599
1515.00134277	2.45098042
1515.00134277	2.43137264
1515.00537109	2.43137264
1515.00952148	2.45098042
1515.01354980	2.43137264
1515.01770020	2.41176462
1515.02160645	2.37254906
1515.02575684	2.37254906
1515.02990723	2.39215684
1515.02990723	2.17647052
1515.03405762	2.31372547
1515.03820801	2.49019599
1515.04223633	2.50980401
1515.04638672	2.50980401
1515.05053711	2.56862736
1515.05456543	2.50980401
1515.05859375	2.49019599
1515.05859375	2.43137264
1515.06274414	2.41176462
1515.06689453	2.45098042
1515.07104492	2.50980401
1515.07507324	2.66666675
1515.07922363	2.54901958
1515.08325195	2.39215684
1515.08740234	2.39215684
1515.08740234	2.49019599
1515.09143066	2.58823538
1515.09545898	2.66666675
1515.09960938	2.52941179
1515.10375977	2.43137264
1515.10778809	2.50980401
1515.11193848	2.56862736
1515.11608887	2.49019599
1515.11608887	2.45098042
1515.12011719	2.45098042
1515.12426758	2.41176462
1515.12841797	2.41176462
1515.13232422	2.45098042
1515.13647461	2.52941179
1515.14062500	2.56862736
1515.14477539	2.52941179
1515.14477539	2.47058821
1515.14880371	2.45098042
1515.15283203	2.43137264
1515.15698242	2.35294127
1515.15698242	2.29411769
1515.16113281	2.19607854
1515.16528320	2.21568632
1515.16931152	2.41176462
1515.17333984	2.50980401
1515.17333984	2.56862736
1515.17749023	2.54901958
1515.18164063	2.52941179
1515.18566895	2.50980401
1515.18566895	2.47058821
1515.18981934	2.50980401
1515.19396973	2.50980401
1515.19799805	2.49019599
1515.20214844	2.43137264
1515.20214844	2.45098042
1515.20629883	2.41176462
1515.21032715	2.21568632
1515.21435547	2.33333325
1515.21435547	2.50980401
1515.21838379	2.50980401
1515.22253418	2.41176462
1515.22656250	2.39215684
1515.23071289	2.43137264
1515.23071289	2.50980401
1515.23498535	2.49019599
1515.23889160	2.43137264
1515.24291992	2.37254906
1515.24291992	2.41176462
1515.24707031	2.33333325
1515.25122070	2.41176462
1515.25524902	2.41176462
1515.25939941	2.45098042
1515.25939941	2.45098042
1515.26342773	2.41176462
1515.26757813	2.43137264
1515.27172852	2.47058821
1515.27172852	2.39215684
1515.27575684	2.37254906
1515.27990723	2.31372547
1515.28405762	2.11764717
1515.28808594	2.27450991
1515.28808594	2.47058821
1515.29223633	2.52941179
1515.29626465	2.49019599
1515.30041504	2.35294127
1515.30041504	2.35294127
1515.30444336	2.43137264
1515.30847168	2.49019599
1515.31262207	2.52941179
1515.31689453	2.43137264
1515.31689453	2.39215684
1515.32092285	2.47058821
1515.32507324	2.58823538
1515.32897949	2.52941179
1515.32897949	2.47058821
1515.33325195	2.43137264
1515.33715820	2.27450991
1515.34130859	2.37254906
1515.34533691	2.49019599
1515.34533691	2.56862736
1515.34948730	2.49019599
1515.35351563	2.41176462
1515.35766602	2.41176462
1515.35766602	2.41176462
1515.36169434	2.39215684
1515.36584473	2.39215684
1515.36987305	2.43137264
1515.37402344	2.45098042
1515.37402344	2.49019599
1515.37817383	2.50980401
1515.38220215	2.47058821
1515.38623047	2.45098042
1515.38623047	2.45098042
1515.39038086	2.49019599
1515.39453125	2.49019599
1515.39855957	2.41176462
1515.40258789	2.39215684
1515.40673828	2.41176462
1515.41088867	2.49019599
1515.41503906	2.50980401
1515.41503906	2.52941179
1515.41918945	2.47058821
1515.42321777	2.49019599
1515.42724609	2.52941179
1515.43151855	2.49019599
1515.43542480	2.47058821
1515.43957520	2.49019599
1515.44360352	2.47058821
1515.44360352	2.45098042
1515.44787598	2.37254906
1515.45178223	2.35294127
1515.45593262	2.45098042
1515.46008301	2.43137264
1515.46423340	2.43137264
1515.46838379	2.49019599
1515.47241211	2.50980401
1515.47241211	2.52941179
1515.47644043	2.56862736
1515.48059082	2.52941179
1515.48486328	2.41176462
1515.48876953	2.47058821
1515.49279785	2.58823538
1515.49707031	2.62745094
1515.50109863	2.56862736
1515.50109863	2.49019599
1515.50524902	2.43137264
1515.50927734	2.43137264
1515.51330566	2.45098042
1515.51745605	2.49019599
1515.52160645	2.50980401
1515.52563477	2.50980401
1515.52966309	2.49019599
1515.52966309	2.50980401
1515.53393555	2.47058821
1515.53808594	2.41176462
1515.54211426	2.21568632
1515.54211426	2.23529410
1515.54626465	2.41176462
1515.55017090	2.52941179
1515.55432129	2.56862736
1515.55847168	2.54901958
1515.55847168	2.49019599
1515.56250000	2.49019599
1515.56665039	2.52941179
1515.57067871	2.56862736
1515.57067871	2.43137264
1515.57482910	2.47058821
1515.57885742	2.60784316
1515.58300781	2.56862736
1515.58715820	2.41176462
1515.58715820	2.37254906
1515.59118652	2.43137264
1515.59521484	2.43137264
1515.59948730	2.47058821
1515.59948730	2.47058821
1515.60339355	2.52941179
1515.60754395	2.54901958
1515.61169434	2.54901958
1515.61572266	2.52941179
1515.61572266	2.50980401
1515.61987305	2.45098042
1515.62402344	2.41176462
1515.62805176	2.41176462
1515.62805176	2.49019599
1515.63220215	2.54901958
1515.63623047	2.56862736
1515.64038086	2.45098042
1515.64440918	2.41176462
1515.64440918	2.43137264
1515.64843750	2.45098042
1515.65258789	2.49019599
1515.65661621	2.50980401
1515.65661621	2.50980401
1515.66076660	2.47058821
1515.66491699	2.54901958
1515.66894531	2.64705873
1515.67321777	2.25490189
1515.67321777	2.15686274
1515.67724609	2.31372547
1515.68139648	2.47058821
1515.68542480	2.52941179
1515.68542480	2.58823538
1515.68945313	2.62745094
1515.69360352	2.58823538
1515.69775391	2.54901958
1515.70190430	2.52941179
1515.70190430	2.35294127
1515.70593262	2.39215684
1515.70996094	2.49019599
1515.71411133	2.58823538
1515.71411133	2.58823538
1515.71826172	2.43137264
1515.72229004	2.43137264
1515.72644043	2.49019599
1515.73046875	2.45098042
1515.73046875	2.43137264
1515.73461914	2.43137264
1515.73864746	2.45098042
1515.74279785	2.54901958
1515.74279785	2.66666675
1515.74694824	2.58823538
1515.75097656	2.56862736
1515.75512695	2.56862736
1515.75927734	2.54901958
1515.75927734	2.58823538
1515.76318359	2.52941179
1515.76745605	2.47058821
1515.77148438	2.49019599
1515.77148438	2.54901958
1515.77551270	2.54901958
1515.77966309	2.50980401
1515.78381348	2.47058821
1515.78796387	2.47058821
1515.79187012	2.49019599
1515.79602051	2.49019599
1515.80029297	2.49019599
1515.80029297	2.45098042
1515.80432129	2.47058821
1515.80834961	2.50980401
1515.81237793	2.52941179
1515.81652832	2.33333325
1515.82055664	2.07843137
1515.82470703	2.19607854
1515.82885742	2.39215684
1515.82885742	2.56862736
1515.83288574	2.60784316
1515.83691406	2.60784316
1515.84106445	2.56862736
1515.84521484	2.49019599
1515.84924316	2.43137264
1515.85327148	2.45098042
1515.85742188	2.47058821
1515.85742188	2.49019599
1515.86157227	2.52941179
1515.86560059	2.54901958
1515.86975098	2.56862736
1515.87377930	2.54901958
1515.87792969	2.50980401
1515.88195801	2.43137264
1515.88623047	2.39215684
1515.88623047	2.43137264
1515.89025879	2.52941179
1515.89440918	2.54901958
1515.89843750	2.54901958
1515.89843750	2.49019599
1515.90246582	2.45098042
1515.90649414	2.47058821
1515.91076660	2.52941179
1515.91479492	2.50980401
1515.91479492	2.47058821
1515.91882324	2.43137264
1515.92297363	2.41176462
1515.92724609	2.41176462
1515.92724609	2.43137264
1515.93127441	2.45098042
1515.93530273	2.47058821
1515.93933105	2.45098042
1515.94348145	2.45098042
1515.94348145	2.49019599
1515.94750977	2.50980401
1515.95178223	2.41176462
1515.95568848	2.27450991
1515.95568848	2.33333325
1515.95983887	2.43137264
1515.96423340	2.56862736
1515.96813965	2.60784316
1515.97229004	2.64705873
1515.97229004	2.64705873
1515.97619629	2.50980401
1515.98034668	2.43137264
1515.98449707	2.41176462
1515.98449707	2.41176462
1515.98864746	2.45098042
1515.99255371	2.52941179
1515.99670410	2.56862736
1516.00085449	2.56862736
1516.00085449	2.52941179
1516.00500488	2.47058821
1516.00891113	2.49019599
1516.01318359	2.52941179
1516.01318359	2.52941179
1516.01733398	2.49019599
1516.02136230	2.43137264
1516.02539063	2.43137264
1516.02954102	2.49019599
1516.02954102	2.47058821
1516.03356934	2.45098042
1516.03771973	2.50980401
1516.04187012	2.60784316
1516.04187012	2.62745094
1516.04577637	2.52941179
1516.04992676	2.23529410
1516.05407715	2.19607854
1516.05822754	2.37254906
1516.05822754	2.56862736
1516.06225586	2.60784316
1516.06640625	2.54901958
1516.07043457	2.52941179
1516.07043457	2.52941179
1516.07458496	2.58823538
1516.07861328	2.56862736
1516.08276367	2.50980401
1516.08691406	2.47058821
1516.08691406	2.52941179
1516.09094238	2.58823538
1516.09509277	2.56862736
1516.09924316	2.52941179
1516.09924316	2.50980401
1516.10327148	2.50980401
1516.10729980	2.50980401
1516.11145020	2.49019599
1516.11560059	2.49019599
1516.11560059	2.50980401
1516.11962891	2.43137264
1516.12365723	2.41176462
1516.12780762	2.39215684
1516.12780762	2.41176462
1516.13183594	2.45098042
1516.13598633	2.49019599
1516.14025879	2.49019599
1516.14416504	2.47058821
1516.14831543	2.54901958
1516.15234375	2.27450991
1516.15649414	2.27450991
1516.15649414	2.33333325
1516.16064453	2.43137264
1516.16467285	2.50980401
1516.16894531	2.52941179
1516.17285156	2.56862736
1516.17700195	2.49019599
1516.18103027	2.50980401
1516.18518066	2.56862736
1516.18518066	2.58823538
1516.18920898	2.47058821
1516.19335938	2.43137264
1516.19750977	2.49019599
1516.20166016	2.54901958
1516.20568848	2.54901958
1516.20971680	2.58823538
1516.21386719	2.60784316
1516.21386719	2.58823538
1516.21813965	2.54901958
1516.22216797	2.52941179
1516.22631836	2.54901958
1516.23022461	2.49019599
1516.23437500	2.52941179
1516.23852539	2.58823538
1516.24267578	2.58823538
1516.24267578	2.41176462
1516.24658203	2.43137264
1516.25073242	2.43137264
1516.25488281	2.45098042
1516.25903320	2.39215684
1516.26306152	2.25490189
1516.26721191	2.33333325
1516.27124023	2.54901958
1516.27124023	2.49019599
1516.27539063	2.47058821
1516.27941895	2.54901958
1516.28344727	2.58823538
1516.28344727	2.62745094
1516.28759766	2.60784316
1516.29174805	2.58823538
1516.29577637	2.58823538
1516.29992676	2.58823538
1516.29992676	2.56862736
1516.30395508	2.56862736
1516.30810547	2.49019599
1516.31225586	2.47058821
1516.31225586	2.47058821
1516.31628418	2.49019599
1516.32031250	2.52941179
1516.32446289	2.62745094
1516.32861328	2.64705873
1516.32861328	2.60784316
1516.33264160	2.56862736
1516.33666992	2.52941179
1516.34082031	2.43137264
1516.34082031	2.37254906
1516.34497070	2.47058821
1516.34899902	2.52941179
1516.35327148	2.54901958
1516.35729980	2.52941179
1516.35729980	2.52941179
1516.36132813	2.41176462
1516.36535645	2.27450991
1516.36950684	2.43137264
1516.36950684	2.54901958
1516.37365723	2.62745094
1516.37768555	2.58823538
1516.38183594	2.52941179
1516.38586426	2.52941179
1516.38586426	2.35294127
1516.38989258	2.43137264
1516.39404297	2.56862736
1516.39819336	2.60784316
1516.39819336	2.52941179
1516.40222168	2.54901958
1516.40625000	2.60784316
1516.41040039	2.54901958
1516.41455078	2.43137264
1516.41455078	2.47058821
1516.41882324	2.39215684
1516.42272949	2.31372547
1516.42687988	2.49019599
1516.42687988	2.64705873
1516.43103027	2.62745094
1516.43505859	2.60784316
1516.43920898	2.56862736
1516.44323730	2.52941179
1516.44323730	2.52941179
1516.44738770	2.56862736
1516.45141602	2.60784316
1516.45556641	2.54901958
1516.45556641	2.45098042
1516.45959473	2.43137264
1516.46374512	2.37254906
1516.46789551	2.45098042
1516.47192383	2.56862736
1516.47192383	2.58823538
1516.47595215	2.56862736
1516.48022461	2.54901958
1516.48413086	2.54901958
1516.48413086	2.50980401
1516.48828125	2.52941179
1516.49230957	2.43137264
1516.49645996	2.21568632
1516.50048828	2.35294127
1516.50048828	2.45098042
1516.50476074	2.47058821
1516.50878906	2.49019599
1516.51281738	2.54901958
1516.51281738	2.54901958
1516.51696777	2.56862736
1516.52111816	2.56862736
1516.52526855	2.50980401
1516.52917480	2.43137264
1516.53332520	2.43137264
1516.53747559	2.39215684
1516.54162598	2.39215684
1516.54162598	2.33333325
1516.54565430	2.41176462
1516.54968262	2.52941179
1516.55383301	2.52941179
1516.55798340	2.58823538
1516.56213379	2.56862736
1516.56616211	2.54901958
1516.57019043	2.50980401
1516.57019043	2.45098042
1516.57434082	2.37254906
1516.57849121	2.50980401
1516.58264160	2.62745094
1516.58654785	2.58823538
1516.59069824	2.54901958
1516.59484863	2.50980401
1516.59899902	2.45098042
1516.59899902	2.47058821
1516.60302734	2.49019599
1516.60705566	2.52941179
1516.61120605	2.49019599
1516.61535645	2.43137264
1516.61926270	2.52941179
1516.62341309	2.54901958
1516.62756348	2.50980401
1516.62756348	2.47058821
1516.63171387	2.47058821
1516.63574219	2.49019599
1516.63977051	2.49019599
1516.64392090	2.09803915
1516.64807129	2.25490189
1516.65222168	2.52941179
1516.65625000	2.58823538
1516.65625000	2.50980401
1516.66027832	2.50980401
1516.66442871	2.52941179
1516.66857910	2.52941179
1516.66857910	2.52941179
1516.67260742	2.47058821
1516.67663574	2.47058821
1516.68078613	2.49019599
1516.68493652	2.47058821
1516.68493652	2.54901958
1516.68884277	2.25490189
1516.69323730	2.19607854
1516.69714355	2.35294127
1516.69714355	2.49019599
1516.70129395	2.50980401
1516.70544434	2.45098042
1516.70947266	2.52941179
1516.71350098	2.52941179
1516.71350098	2.47058821
1516.71777344	2.47058821
1516.72192383	2.35294127
1516.72607422	2.43137264
1516.72607422	2.49019599
1516.72998047	2.54901958
1516.73413086	2.54901958
1516.73815918	2.54901958
1516.74243164	2.56862736
1516.74243164	2.52941179
1516.74645996	2.47058821
1516.75048828	2.41176462
1516.75463867	2.49019599
1516.75463867	2.54901958
1516.75878906	2.31372547
1516.76281738	2.19607854
1516.76696777	2.37254906
1516.77099609	2.52941179
1516.77099609	2.58823538
1516.77514648	2.58823538
1516.77929688	2.49019599
1516.78320313	2.43137264
1516.78320313	2.31372547
1516.78735352	2.33333325
1516.79150391	2.47058821
1516.79553223	2.52941179
1516.79956055	2.52941179
1516.79956055	2.49019599
1516.80371094	2.45098042
1516.80786133	2.47058821
1516.81201172	2.52941179
1516.81201172	2.54901958
1516.81604004	2.41176462
1516.82031250	2.29411769
1516.82421875	2.31372547
1516.82836914	2.39215684
1516.82836914	2.50980401
1516.83239746	2.60784316
1516.83654785	2.60784316
1516.84057617	2.52941179
1516.84057617	2.45098042
1516.84472656	2.45098042
1516.84887695	2.39215684
1516.85290527	2.33333325
1516.85705566	2.37254906
1516.85705566	2.47058821
1516.86108398	2.47058821
1516.86523438	2.43137264
1516.86938477	2.45098042
1516.86938477	2.45098042
1516.87341309	2.49019599
1516.87744141	2.52941179
1516.88159180	2.50980401
1516.88574219	2.49019599
1516.88977051	2.45098042
1516.89392090	2.35294127
1516.89794922	2.25490189
1516.89794922	2.37254906
1516.90209961	2.47058821
1516.90625000	2.54901958
1516.91027832	2.56862736
1516.91430664	2.41176462
1516.91857910	2.52941179
1516.92248535	2.47058821
1516.92663574	2.49019599
1516.92663574	2.49019599
1516.93078613	2.49019599
1516.93481445	2.56862736
1516.93896484	2.50980401
1516.94299316	2.35294127
1516.94714355	2.50980401
1516.95117188	2.50980401
1516.95544434	2.49019599
1516.95544434	2.50980401
1516.95935059	2.49019599
1516.96350098	2.47058821
1516.96765137	2.41176462
1516.97180176	2.47058821
1516.97570801	2.49019599
1516.97985840	2.43137264
1516.98400879	2.39215684
1516.98400879	2.33333325
1516.98815918	2.43137264
1516.99230957	2.54901958
1516.99621582	2.60784316
1517.00036621	2.45098042
1517.00451660	2.31372547
1517.00854492	2.39215684
1517.01269531	2.50980401
1517.01269531	2.54901958
1517.01672363	2.52941179
1517.02087402	2.33333325
1517.02502441	2.21568632
1517.02502441	2.35294127
1517.02905273	2.54901958
1517.03332520	2.60784316
1517.03723145	2.29411769
1517.04138184	2.29411769
1517.04138184	2.37254906
1517.04553223	2.49019599
1517.04956055	2.58823538
1517.05358887	2.54901958
1517.05358887	2.50980401
1517.05773926	2.39215684
1517.06176758	2.23529410
1517.06591797	2.25490189
1517.06994629	2.37254906
1517.06994629	2.50980401
1517.07409668	2.54901958
1517.07824707	2.52941179
1517.08239746	2.43137264
1517.08239746	2.39215684
1517.08630371	2.41176462
1517.09045410	2.50980401
1517.09460449	2.56862736
1517.09875488	2.58823538
1517.09875488	2.50980401
1517.10278320	2.45098042
1517.10681152	2.41176462
1517.11096191	2.43137264
1517.11096191	2.52941179
1517.11511230	2.58823538
1517.11926270	2.56862736
1517.12329102	2.41176462
1517.12731934	2.23529410
1517.12731934	2.39215684
1517.13146973	2.68627453
1517.13574219	2.74509811
1517.13952637	2.68627453
1517.13952637	2.47058821
1517.14379883	2.45098042
1517.14782715	2.49019599
1517.15197754	2.58823538
1517.15612793	2.60784316
1517.15612793	2.56862736
1517.16027832	2.29411769
1517.16430664	2.09803915
1517.16833496	2.27450991
1517.16833496	2.54901958
1517.17236328	2.66666675
1517.17651367	2.66666675
1517.18054199	2.60784316
1517.18469238	2.52941179
1517.18469238	2.47058821
1517.18884277	2.50980401
1517.19287109	2.58823538
1517.19689941	2.58823538
1517.19689941	2.45098042
1517.20104980	2.39215684
1517.20520020	2.39215684
1517.20922852	2.54901958
1517.21325684	2.49019599
1517.21325684	2.43137264
1517.21752930	2.43137264
1517.22167969	2.31372547
1517.22570801	2.37254906
1517.22570801	2.49019599
1517.22973633	2.58823538
1517.23388672	2.54901958
1517.23791504	2.50980401
1517.24206543	2.52941179
1517.24206543	2.54901958
1517.24621582	2.54901958
1517.25024414	2.49019599
1517.25427246	2.41176462
1517.25427246	2.50980401
1517.25842285	2.54901958
1517.26245117	2.54901958
1517.26660156	2.29411769
1517.27075195	2.47058821
1517.27478027	2.47058821
1517.27893066	2.49019599
1517.28308105	2.54901958
1517.28308105	2.54901958
1517.28723145	2.54901958
1517.29125977	2.62745094
1517.29528809	2.52941179
1517.29943848	2.39215684
1517.30346680	2.27450991
1517.30749512	2.29411769
1517.31164551	2.43137264
1517.31164551	2.49019599
1517.31579590	2.50980401
1517.31982422	2.41176462
1517.32385254	2.45098042
1517.32812500	2.54901958
1517.33227539	2.60784316
1517.33630371	2.62745094
1517.34033203	2.58823538
1517.34033203	2.52941179
1517.34448242	2.50980401
1517.34863281	2.49019599
1517.35278320	2.47058821
1517.35681152	2.49019599
1517.36083984	2.45098042
1517.36499023	2.41176462
1517.36901855	2.52941179
1517.36901855	2.52941179
1517.37329102	2.54901958
1517.37719727	2.54901958
1517.38134766	2.56862736
1517.38549805	2.49019599
1517.38952637	2.54901958
1517.39367676	2.56862736
1517.39770508	2.56862736
1517.39770508	2.56862736
1517.40185547	2.49019599
1517.40588379	2.49019599
1517.41003418	2.56862736
1517.41003418	2.68627453
1517.41418457	2.72549009
1517.41833496	2.64705873
1517.42236328	2.47058821
1517.42639160	2.43137264
1517.42639160	2.50980401
1517.43041992	2.50980401
1517.43457031	2.50980401
1517.43872070	2.50980401
1517.43872070	2.50980401
1517.44274902	2.58823538
1517.44689941	2.68627453
1517.45092773	2.66666675
1517.45507813	2.74509811
1517.45507813	2.70588231
1517.45922852	2.56862736
1517.46313477	2.56862736
1517.46740723	2.60784316
1517.46740723	2.43137264
1517.47155762	2.45098042
1517.47558594	2.54901958
1517.47961426	2.54901958
1517.48388672	2.50980401
1517.48388672	2.50980401
1517.48779297	2.45098042
1517.49194336	2.31372547
1517.49609375	2.49019599
1517.49609375	2.68627453
1517.50024414	2.70588231
1517.50415039	2.64705873
1517.50842285	2.68627453
1517.51245117	2.70588231
1517.51245117	2.68627453
1517.51647949	2.64705873
1517.52062988	2.64705873
1517.52465820	2.56862736
1517.52465820	2.45098042
1517.52880859	2.43137264
1517.53283691	2.35294127
1517.53686523	2.33333325
1517.54101563	2.37254906
1517.54101563	2.25490189
1517.54516602	2.19607854
1517.54919434	2.11764717
1517.55334473	2.07843137
1517.55334473	2.03921580
1517.55749512	1.86274505
1517.56164551	1.96078432
1517.56567383	2.23529410
1517.56970215	2.31372547
1517.56970215	2.31372547
1517.57385254	2.35294127
1517.57800293	2.39215684
1517.58215332	2.35294127
1517.58215332	2.37254906
1517.58618164	2.37254906
1517.59020996	2.39215684
1517.59436035	2.41176462
1517.59851074	2.47058821
1517.59851074	2.47058821
1517.60253906	2.45098042
1517.60656738	2.50980401
1517.61071777	2.54901958
1517.61071777	2.56862736
1517.61486816	2.60784316
1517.61901855	2.58823538
1517.62304688	2.45098042
1517.62731934	2.52941179
1517.62731934	2.60784316
1517.63134766	2.70588231
1517.63537598	2.74509811
1517.63940430	2.72549009
1517.63940430	2.70588231
1517.64343262	2.74509811
1517.64758301	2.76470590
1517.65173340	2.78431368
1517.65576172	2.68627453
1517.65979004	2.29411769
1517.66406250	2.35294127
1517.66809082	2.58823538
1517.66809082	2.70588231
1517.67224121	2.60784316
1517.67626953	2.62745094
1517.68041992	2.70588231
1517.68457031	2.74509811
1517.68859863	2.72549009
1517.69274902	2.70588231
1517.69665527	2.66666675
1517.69665527	2.54901958
1517.70080566	2.47058821
1517.70495605	2.45098042
1517.70910645	2.47058821
1517.71313477	2.39215684
1517.71716309	2.41176462
1517.72143555	2.41176462
1517.72546387	2.35294127
1517.72546387	2.21568632
1517.72949219	2.21568632
1517.73364258	2.25490189
1517.73791504	2.25490189
1517.74182129	2.11764717
1517.74597168	2.15686274
1517.75000000	2.31372547
1517.75415039	2.35294127
1517.75415039	2.21568632
1517.75817871	2.27450991
1517.76232910	2.37254906
1517.76635742	2.45098042
1517.77038574	2.56862736
1517.77465820	2.62745094
1517.77880859	2.58823538
1517.78295898	2.52941179
1517.78295898	2.56862736
1517.78686523	2.64705873
1517.79101563	2.64705873
1517.79516602	2.62745094
1517.79516602	2.62745094
1517.79919434	2.62745094
1517.80322266	2.58823538
1517.80737305	2.56862736
1517.81152344	2.54901958
1517.81152344	2.47058821
1517.81555176	2.33333325
1517.81958008	2.45098042
1517.82385254	2.54901958
1517.82385254	2.49019599
1517.82788086	2.49019599
1517.83203125	2.50980401
1517.83605957	2.49019599
1517.84020996	2.45098042
1517.84020996	2.37254906
1517.84423828	2.29411769
1517.84838867	2.29411769
1517.85253906	2.21568632
1517.85253906	2.19607854
1517.85644531	2.31372547
1517.86059570	2.41176462
1517.86474609	2.47058821
1517.86889648	2.47058821
1517.86889648	2.56862736
1517.87280273	2.54901958
1517.87695313	2.49019599
1517.88122559	2.49019599
1517.88122559	2.47058821
1517.88525391	2.39215684
1517.88928223	2.39215684
1517.89331055	2.41176462
1517.89746094	2.43137264
1517.89746094	2.47058821
1517.90161133	2.52941179
1517.90576172	2.56862736
1517.90991211	2.47058821
1517.90991211	2.41176462
1517.91381836	2.41176462
1517.91796875	2.54901958
1517.92211914	2.49019599
1517.92626953	2.41176462
1517.92626953	2.35294127
1517.93029785	2.37254906
1517.93432617	2.47058821
1517.93847656	2.58823538
1517.93847656	2.62745094
1517.94262695	2.54901958
1517.94653320	2.49019599
1517.95068359	2.52941179
1517.95483398	2.56862736
1517.95483398	2.23529410
1517.95898438	2.31372547
1517.96301270	2.43137264
1517.96728516	2.45098042
1517.96728516	2.52941179
1517.97119141	2.64705873
1517.97534180	2.66666675
1517.97949219	2.70588231
1517.98352051	2.64705873
1517.98352051	2.58823538
1517.98767090	2.58823538
1517.99169922	2.56862736
1517.99584961	2.50980401
1517.99584961	2.58823538
1517.99987793	2.58823538
1518.00390625	2.54901958
1518.00817871	2.47058821
1518.01220703	2.43137264
1518.01623535	2.43137264
1518.02026367	2.41176462
1518.02441406	2.29411769
1518.02441406	2.31372547
1518.02856445	2.39215684
1518.03271484	2.47058821
1518.03674316	2.56862736
1518.04089355	2.50980401
1518.04504395	2.41176462
1518.04907227	2.43137264
1518.05322266	2.47058821
1518.05322266	2.49019599
1518.05725098	2.54901958
1518.06140137	2.50980401
1518.06542969	2.50980401
1518.06958008	2.41176462
1518.07360840	2.25490189
1518.07775879	2.39215684
1518.08178711	2.50980401
1518.08178711	2.52941179
1518.08581543	2.50980401
1518.08996582	2.50980401
1518.09423828	2.54901958
1518.09814453	2.64705873
1518.10229492	2.58823538
1518.10632324	2.56862736
1518.11047363	2.47058821
1518.11047363	2.19607854
1518.11450195	2.25490189
1518.11865234	2.43137264
1518.12280273	2.56862736
1518.12683105	2.64705873
1518.13098145	2.66666675
1518.13513184	2.64705873
1518.13916016	2.62745094
1518.13916016	2.58823538
1518.14318848	2.54901958
1518.14733887	2.50980401
1518.15148926	2.52941179
1518.15551758	2.56862736
1518.15954590	2.54901958
1518.16369629	2.49019599
1518.16784668	2.45098042
1518.16784668	2.45098042
1518.17199707	2.54901958
1518.17590332	2.50980401
1518.18017578	2.47058821
1518.18017578	2.37254906
1518.18420410	2.52941179
1518.18835449	2.56862736
1518.19250488	2.56862736
1518.19653320	2.45098042
1518.19653320	2.45098042
1518.20056152	2.50980401
1518.20471191	2.56862736
1518.20874023	2.58823538
1518.20874023	2.60784316
1518.21276855	2.49019599
1518.21691895	2.35294127
1518.22106934	2.33333325
1518.22521973	2.41176462
1518.22521973	2.50980401
1518.22937012	2.58823538
1518.23327637	2.60784316
1518.23742676	2.58823538
1518.23742676	2.52941179
1518.24157715	2.52941179
1518.24560547	2.50980401
1518.24975586	2.47058821
1518.25378418	2.43137264
1518.25378418	2.43137264
1518.25793457	2.41176462
1518.26208496	2.35294127
1518.26623535	2.39215684
1518.26623535	2.45098042
1518.27014160	2.52941179
1518.27429199	2.52941179
1518.27844238	2.13725495
1518.28259277	1.90196073
1518.28259277	2.07843137
1518.28649902	2.31372547
1518.29064941	2.49019599
1518.29479980	2.58823538
1518.29479980	2.66666675
1518.29895020	2.62745094
1518.30297852	2.50980401
1518.30725098	2.47058821
1518.31127930	2.52941179
1518.31127930	2.62745094
1518.31530762	2.58823538
1518.31945801	2.54901958
1518.32360840	2.50980401
1518.32360840	2.45098042
1518.32763672	2.49019599
1518.33166504	2.52941179
1518.33581543	2.49019599
1518.33996582	2.45098042
1518.33996582	2.47058821
1518.34399414	2.50980401
1518.34814453	2.45098042
1518.35217285	2.43137264
1518.35217285	2.49019599
1518.35620117	2.54901958
1518.36035156	2.56862736
1518.36450195	2.56862736
1518.36853027	2.58823538
1518.36853027	2.43137264
1518.37268066	2.11764717
1518.37683105	2.17647052
1518.38085938	2.37254906
1518.38085938	2.47058821
1518.38488770	2.41176462
1518.38903809	2.11764717
1518.39318848	2.11764717
1518.39721680	2.41176462
1518.39721680	2.54901958
1518.40136719	2.52941179
1518.40539551	2.49019599
1518.40954590	2.49019599
1518.40954590	2.52941179
1518.41357422	2.41176462
1518.41772461	2.39215684
1518.42175293	2.45098042
1518.42590332	2.49019599
1518.42993164	2.54901958
1518.43408203	2.47058821
1518.43823242	2.45098042
1518.43823242	2.47058821
1518.44226074	2.49019599
1518.44628906	2.50980401
1518.45043945	2.54901958
1518.45458984	2.62745094
1518.45874023	2.37254906
1518.46276855	2.35294127
1518.46691895	2.52941179
1518.46691895	2.64705873
1518.47094727	2.70588231
1518.47509766	2.49019599
1518.47924805	2.43137264
1518.48315430	2.54901958
1518.48730469	2.56862736
1518.49145508	2.56862736
1518.49560547	2.54901958
1518.49560547	2.56862736
1518.49963379	2.56862736
1518.50366211	2.43137264
1518.50781250	2.25490189
1518.51184082	2.60784316
1518.51599121	2.60784316
1518.52014160	2.45098042
1518.52416992	2.37254906
1518.52416992	2.39215684
1518.52832031	2.52941179
1518.53247070	2.60784316
1518.53662109	2.60784316
1518.53662109	2.52941179
1518.54064941	2.43137264
1518.54479980	2.41176462
1518.54882813	2.41176462
1518.55297852	2.23529410
1518.55297852	2.21568632
1518.55700684	2.39215684
1518.56103516	2.43137264
1518.56530762	2.50980401
1518.56530762	2.49019599
1518.56933594	2.50980401
1518.57336426	2.49019599
1518.57751465	2.45098042
1518.58166504	2.45098042
1518.58166504	2.47058821
1518.58569336	2.45098042
1518.58972168	2.45098042
1518.59387207	2.47058821
1518.59387207	2.45098042
1518.59802246	2.47058821
1518.60205078	2.49019599
1518.60620117	2.45098042
1518.61022949	2.50980401
1518.61022949	2.47058821
1518.61437988	2.11764717
1518.61853027	2.27450991
1518.62255859	2.52941179
1518.62255859	2.64705873
1518.62658691	2.66666675
1518.63073730	2.70588231
1518.63488770	2.64705873
1518.63891602	2.60784316
1518.63891602	2.50980401
1518.64294434	2.33333325
1518.64733887	2.39215684
1518.65124512	2.52941179
1518.65124512	2.58823538
1518.65527344	2.58823538
1518.65942383	2.56862736
1518.66345215	2.58823538
1518.66760254	2.58823538
1518.66760254	2.52941179
1518.67163086	2.50980401
1518.67578125	2.47058821
1518.67993164	2.45098042
1518.67993164	2.47058821
1518.68395996	2.50980401
1518.68811035	2.54901958
1518.69226074	2.43137264
1518.69641113	2.41176462
1518.69641113	2.49019599
1518.70031738	2.43137264
1518.70446777	2.35294127
1518.70861816	2.37254906
1518.70861816	2.33333325
1518.71276855	2.35294127
1518.71667480	2.41176462
1518.72082520	2.45098042
1518.72497559	2.35294127
1518.72497559	2.31372547
1518.72912598	2.33333325
1518.73327637	2.39215684
1518.73718262	2.47058821
1518.73718262	2.27450991
1518.74133301	2.27450991
1518.74548340	2.45098042
1518.74963379	2.58823538
1518.75366211	2.39215684
1518.75366211	2.41176462
1518.75769043	2.56862736
1518.76184082	2.58823538
1518.76599121	2.54901958
1518.76599121	2.70588231
1518.76989746	2.64705873
1518.77416992	2.60784316
1518.77819824	2.52941179
1518.78234863	2.45098042
1518.78625488	2.52941179
1518.79052734	2.58823538
1518.79455566	2.66666675
1518.79455566	2.62745094
1518.79870605	2.54901958
1518.80273438	2.49019599
1518.80676270	2.49019599
1518.81091309	2.50980401
1518.81506348	2.47058821
1518.81921387	2.47058821
1518.82336426	2.47058821
1518.82336426	2.47058821
1518.82727051	2.35294127
1518.83142090	2.37254906
1518.83544922	2.21568632
1518.83972168	2.47058821
1518.84362793	2.52941179
1518.84777832	2.50980401
1518.85192871	2.47058821
1518.85192871	2.49019599
1518.85607910	2.49019599
1518.86022949	2.43137264
1518.86413574	2.47058821
1518.86828613	2.23529410
1518.87243652	2.35294127
1518.87658691	2.35294127
1518.88061523	2.37254906
1518.88061523	2.49019599
1518.88476563	2.60784316
1518.88879395	2.64705873
1518.89294434	2.64705873
1518.89697266	2.56862736
1518.90124512	2.56862736
1518.90515137	2.64705873
1518.90930176	2.62745094
1518.90930176	2.58823538
1518.91333008	2.56862736
1518.91748047	2.60784316
1518.92150879	2.62745094
1518.92565918	2.52941179
1518.92980957	2.49019599
1518.93383789	2.43137264
1518.93798828	2.52941179
1518.93798828	2.68627453
1518.94213867	2.58823538
1518.94628906	2.27450991
1518.95031738	2.27450991
1518.95031738	2.35294127
1518.95434570	2.43137264
1518.95837402	2.47058821
1518.96264648	2.49019599
1518.96667480	2.52941179
1518.96667480	2.50980401
1518.97070313	2.43137264
1518.97485352	2.41176462
1518.97900391	2.45098042
1518.97900391	2.49019599
1518.98315430	2.47058821
1518.98730469	2.43137264
1518.99121094	2.41176462
1518.99536133	2.43137264
1518.99536133	2.49019599
1518.99951172	2.49019599
1519.00366211	2.47058821
1519.00756836	2.45098042
1519.00756836	2.19607854
1519.01171875	2.29411769
1519.01586914	2.50980401
1519.01977539	2.58823538
1519.02392578	2.64705873
1519.02392578	2.60784316
1519.02807617	2.58823538
1519.03222656	2.49019599
1519.03625488	2.45098042
1519.03625488	2.54901958
1519.04040527	2.45098042
1519.04455566	2.39215684
1519.04858398	2.49019599
1519.05273438	2.56862736
1519.05273438	2.62745094
1519.05664063	2.66666675
1519.06091309	2.84313726
1519.06494141	2.64705873
1519.06494141	2.45098042
1519.06909180	2.41176462
1519.07324219	2.43137264
1519.07714844	2.52941179
1519.08142090	2.54901958
1519.08142090	2.49019599
1519.08544922	2.45098042
1519.08959961	2.37254906
1519.09362793	2.37254906
1519.09362793	2.45098042
1519.09777832	2.47058821
1519.10180664	2.47058821
1519.10595703	2.45098042
1519.10998535	2.45098042
1519.10998535	2.50980401
1519.11413574	2.50980401
1519.11816406	2.43137264
1519.12231445	2.41176462
1519.12231445	2.39215684
1519.12622070	2.37254906
1519.13037109	2.27450991
1519.13452148	2.33333325
1519.13867188	2.25490189
1519.13867188	2.37254906
1519.14270020	2.47058821
1519.14685059	2.52941179
1519.15087891	2.56862736
1519.15087891	2.58823538
1519.15502930	2.50980401
1519.15917969	2.41176462
1519.16320801	2.43137264
1519.16723633	2.58823538
1519.17138672	2.56862736
1519.17565918	2.54901958
1519.17980957	2.52941179
1519.17980957	2.49019599
1519.18371582	2.49019599
1519.18786621	2.54901958
1519.19201660	2.64705873
1519.19616699	2.54901958
1519.20019531	2.52941179
1519.20422363	2.43137264
1519.20837402	2.49019599
1519.20837402	2.47058821
1519.21240234	2.49019599
1519.21655273	2.54901958
1519.22058105	2.35294127
1519.22473145	2.49019599
1519.22875977	2.43137264
1519.23291016	2.47058821
1519.23706055	2.47058821
1519.23706055	2.43137264
1519.24121094	2.41176462
1519.24523926	2.43137264
1519.24926758	2.43137264
1519.25329590	2.49019599
1519.25744629	2.50980401
1519.26159668	2.43137264
1519.26574707	2.19607854
1519.26574707	2.11764717
1519.26977539	2.33333325
1519.27380371	2.41176462
1519.27795410	2.25490189
1519.28210449	2.49019599
1519.28613281	2.66666675
1519.29016113	2.70588231
1519.29431152	2.74509811
1519.29431152	2.64705873
1519.29846191	2.52941179
1519.30261230	2.47058821
1519.30664063	2.47058821
1519.30664063	2.47058821
1519.31066895	2.45098042
1519.31481934	2.49019599
1519.31896973	2.37254906
1519.32312012	2.31372547
1519.32312012	2.43137264
1519.32714844	2.54901958
1519.33129883	2.58823538
1519.33532715	2.60784316
1519.33532715	2.58823538
1519.33947754	2.54901958
1519.34338379	2.47058821
1519.34765625	2.47058821
1519.35168457	2.45098042
1519.35168457	2.47058821
1519.35583496	2.49019599
1519.35986328	2.41176462
1519.36401367	2.33333325
1519.36401367	2.35294127
1519.36804199	2.31372547
1519.37219238	2.41176462
1519.37634277	2.56862736
1519.38024902	2.54901958
1519.38024902	2.50980401
1519.38439941	2.39215684
1519.38854980	2.45098042
1519.39270020	2.56862736
1519.39270020	2.52941179
1519.39672852	2.49019599
1519.40087891	2.31372547
1519.40490723	2.37254906
1519.40905762	2.49019599
1519.40905762	2.52941179
1519.41308594	2.56862736
1519.41711426	2.58823538
1519.42126465	2.50980401
1519.42126465	2.43137264
1519.42541504	2.39215684
1519.42956543	2.35294127
1519.43359375	2.43137264
1519.43762207	2.56862736
1519.43762207	2.72549009
1519.44177246	2.68627453
1519.44592285	2.56862736
1519.45007324	2.49019599
1519.45007324	2.47058821
1519.45410156	2.52941179
1519.45812988	2.54901958
1519.46228027	2.43137264
1519.46643066	2.43137264
1519.46643066	2.49019599
1519.47045898	2.60784316
1519.47460938	2.72549009
1519.47863770	2.60784316
1519.47863770	2.50980401
1519.48291016	2.45098042
1519.48681641	2.43137264
1519.49096680	2.17647052
1519.49511719	2.13725495
1519.49511719	2.33333325
1519.49926758	2.29411769
1519.50329590	2.33333325
1519.50732422	2.52941179
1519.50732422	2.58823538
1519.51147461	2.58823538
1519.51562500	2.54901958
1519.51965332	2.49019599
1519.52368164	2.49019599
1519.52368164	2.47058821
1519.52783203	2.56862736
1519.53198242	2.52941179
1519.53601074	2.43137264
1519.53601074	2.41176462
1519.54016113	2.39215684
1519.54418945	2.47058821
1519.54833984	2.56862736
1519.55249023	2.60784316
1519.55664063	2.50980401
1519.56054688	2.31372547
1519.56469727	2.37254906
1519.56469727	2.47058821
1519.56884766	2.54901958
1519.57299805	2.58823538
1519.57702637	2.60784316
1519.58129883	2.58823538
1519.58520508	2.62745094
1519.58935547	2.62745094
1519.59350586	2.58823538
1519.59350586	2.66666675
1519.59753418	2.74509811
1519.60156250	2.52941179
1519.60571289	2.45098042
1519.60986328	2.49019599
1519.61389160	2.47058821
1519.61791992	2.43137264
1519.62207031	2.49019599
1519.62207031	2.50980401
1519.62622070	2.52941179
1519.63024902	2.49019599
1519.63439941	2.43137264
1519.63842773	2.43137264
1519.64257813	2.43137264
1519.64672852	2.39215684
1519.65075684	2.35294127
1519.65075684	2.21568632
1519.65478516	2.31372547
1519.65881348	2.45098042
1519.66308594	2.52941179
1519.66723633	2.52941179
1519.67114258	2.45098042
1519.67529297	2.41176462
1519.67944336	2.39215684
1519.67944336	2.43137264
1519.68347168	2.49019599
1519.68750000	2.47058821
1519.69177246	2.45098042
1519.69177246	2.41176462
1519.69592285	2.33333325
1519.69995117	2.31372547
1519.70385742	2.39215684
1519.70812988	2.45098042
1519.70812988	2.43137264
1519.71215820	2.41176462
1519.71630859	2.47058821
1519.72045898	2.72549009
1519.72045898	2.82352948
1519.72436523	2.64705873
1519.72851563	2.56862736
1519.73266602	2.52941179
1519.73681641	2.47058821
1519.73681641	2.39215684
1519.74072266	2.39215684
1519.74487305	2.49019599
1519.74902344	2.64705873
1519.74902344	2.58823538
1519.75317383	2.47058821
1519.75708008	2.56862736
1519.76123047	2.70588231
1519.76538086	2.76470590
1519.76538086	2.78431368
1519.76953125	2.68627453
1519.77343750	2.60784316
1519.77758789	2.39215684
1519.77758789	2.21568632
1519.78186035	2.23529410
1519.78588867	2.33333325
1519.79003906	2.43137264
1519.79418945	2.45098042
1519.79418945	2.50980401
1519.79821777	2.52941179
1519.80224609	2.47058821
1519.80651855	2.41176462
1519.80651855	2.33333325
1519.81042480	2.29411769
1519.81457520	2.35294127
1519.81872559	2.39215684
1519.82287598	2.35294127
1519.82287598	2.35294127
1519.82702637	2.33333325
1519.83093262	2.25490189
1519.83520508	2.23529410
1519.83520508	2.25490189
1519.83923340	2.33333325
1519.84326172	2.35294127
1519.84729004	2.37254906
1519.85156250	2.43137264
1519.85156250	2.39215684
1519.85559082	2.37254906
1519.85961914	2.13725495
1519.86376953	2.37254906
1519.86376953	2.39215684
1519.86779785	2.49019599
1519.87194824	2.66666675
1519.87609863	2.74509811
1519.88012695	2.72549009
1519.88012695	2.76470590
1519.88415527	2.80392146
1519.88830566	2.76470590
1519.89245605	2.74509811
1519.89245605	2.56862736
1519.89648438	2.49019599
1519.90063477	2.52941179
1519.90466309	2.66666675
1519.90881348	2.72549009
1519.90881348	2.72549009
1519.91296387	2.74509811
1519.91699219	2.68627453
1519.92114258	2.60784316
1519.92114258	2.54901958
1519.92517090	2.50980401
1519.92932129	2.50980401
1519.93347168	2.49019599
1519.93737793	2.41176462
1519.94152832	2.35294127
1519.94567871	2.35294127
1519.94982910	2.35294127
1519.94982910	2.35294127
1519.95385742	2.37254906
1519.95788574	2.35294127
1519.96203613	2.35294127
1519.96630859	2.31372547
1519.97021484	2.33333325
1519.97424316	2.41176462
1519.97839355	2.27450991
1519.97839355	1.96078432
1519.98266602	2.09803915
1519.98669434	2.33333325
1519.99060059	2.41176462
1519.99475098	2.52941179
1519.99890137	2.54901958
1520.00305176	2.37254906
1520.00720215	2.27450991
1520.00720215	2.31372547
1520.01110840	2.39215684
1520.01525879	2.49019599
1520.01940918	2.54901958
1520.02355957	2.54901958
1520.02746582	2.58823538
1520.03161621	2.58823538
1520.03576660	2.60784316
1520.03576660	2.72549009
1520.03991699	2.70588231
1520.04382324	2.49019599
1520.04809570	2.58823538
1520.05212402	2.84313726
1520.05627441	2.94117641
1520.06030273	2.90196085
1520.06445313	2.80392146
1520.06445313	2.74509811
1520.06848145	2.66666675
1520.07263184	2.56862736
1520.07690430	2.70588231
1520.07690430	2.80392146
1520.08081055	2.37254906
1520.08496094	2.25490189
1520.08911133	2.15686274
1520.09326172	2.17647052
1520.09326172	2.35294127
1520.09729004	2.45098042
1520.10131836	2.47058821
1520.10546875	2.47058821
1520.10546875	2.41176462
1520.10949707	2.37254906
1520.11364746	2.39215684
1520.11767578	2.43137264
1520.12182617	2.45098042
1520.12182617	2.35294127
1520.12597656	2.17647052
1520.13000488	2.11764717
1520.13415527	2.21568632
1520.13415527	2.29411769
1520.13818359	2.25490189
1520.14233398	2.25490189
1520.14636230	2.29411769
1520.15051270	2.31372547
1520.15051270	2.39215684
1520.15441895	2.45098042
1520.15869141	2.56862736
1520.16271973	2.27450991
1520.16271973	2.17647052
1520.16674805	2.35294127
1520.17089844	2.54901958
1520.17504883	2.56862736
1520.17919922	2.74509811
1520.17919922	2.66666675
1520.18334961	2.31372547
1520.18725586	2.27450991
1520.19140625	2.49019599
1520.19140625	2.70588231
1520.19555664	2.72549009
1520.19970703	2.68627453
1520.20373535	2.60784316
1520.20788574	2.58823538
1520.20788574	2.62745094
1520.21203613	2.62745094
1520.21606445	2.62745094
1520.22021484	2.62745094
1520.22021484	2.50980401
1520.22412109	2.45098042
1520.22839355	2.39215684
1520.23242188	2.35294127
1520.23657227	2.41176462
1520.23657227	2.50980401
1520.24047852	2.49019599
1520.24475098	2.45098042
1520.24877930	2.47058821
1520.24877930	2.52941179
1520.25292969	2.60784316
1520.25708008	2.49019599
1520.26123047	2.35294127
1520.26513672	2.31372547
1520.26513672	2.33333325
1520.26940918	2.31372547
1520.27343750	2.17647052
1520.27746582	2.00000000
1520.27746582	2.00000000
1520.28161621	2.13725495
1520.28576660	2.49019599
1520.28979492	2.50980401
1520.29394531	2.45098042
1520.29394531	2.45098042
1520.29785156	2.17647052
1520.30212402	2.17647052
1520.30615234	2.39215684
1520.30615234	2.47058821
1520.31030273	2.49019599
1520.31433105	2.50980401
1520.31848145	2.52941179
1520.32250977	2.43137264
1520.32666016	2.41176462
1520.33056641	2.47058821
1520.33483887	2.52941179
1520.33483887	2.52941179
1520.33886719	2.47058821
1520.34301758	2.39215684
1520.34716797	2.39215684
1520.35119629	2.43137264
1520.35534668	2.47058821
1520.35937500	2.47058821
1520.36352539	2.50980401
1520.36352539	2.43137264
1520.36755371	2.43137264
1520.37170410	2.33333325
1520.37597656	2.29411769
1520.37988281	2.21568632
1520.38391113	2.33333325
1520.38818359	2.33333325
1520.39221191	2.37254906
1520.39221191	2.43137264
1520.39636230	2.45098042
1520.40051270	2.49019599
1520.40441895	2.29411769
1520.40856934	2.29411769
1520.41271973	2.29411769
1520.41687012	2.29411769
1520.42077637	2.11764717
1520.42077637	2.05882359
1520.42492676	2.25490189
1520.42907715	2.39215684
1520.43322754	2.45098042
1520.43322754	2.43137264
1520.43713379	2.37254906
1520.44128418	2.33333325
1520.44543457	2.25490189
1520.44958496	2.27450991
1520.44958496	2.31372547
1520.45349121	2.35294127
1520.45764160	2.37254906
1520.46179199	2.41176462
1520.46179199	2.35294127
1520.46594238	2.25490189
1520.47009277	2.13725495
1520.47412109	2.09803915
1520.47814941	2.03921580
1520.47814941	2.17647052
1520.48229980	2.19607854
1520.48645020	2.27450991
1520.49060059	2.35294127
1520.49060059	2.60784316
1520.49450684	2.58823538
1520.49865723	2.37254906
1520.50280762	2.31372547
1520.50695801	2.29411769
1520.50695801	2.27450991
1520.51086426	2.31372547
1520.51513672	2.33333325
1520.51916504	2.25490189
1520.51916504	2.15686274
1520.52331543	2.21568632
1520.52722168	2.29411769
1520.53149414	2.35294127
1520.53564453	2.15686274
1520.53564453	2.19607854
1520.53967285	2.37254906
1520.54382324	2.54901958
1520.54772949	2.49019599
1520.54772949	2.47058821
1520.55187988	2.43137264
1520.55590820	2.31372547
1520.56018066	2.27450991
1520.56420898	2.25490189
1520.56420898	2.17647052
1520.56835938	2.17647052
1520.57238770	2.39215684
1520.57653809	2.49019599
1520.57653809	2.50980401
1520.58056641	2.47058821
1520.58459473	2.45098042
1520.58874512	2.45098042
1520.59289551	2.45098042
1520.59289551	2.45098042
1520.59704590	2.39215684
1520.60107422	2.33333325
1520.60510254	2.35294127
1520.60510254	2.37254906
1520.60925293	2.35294127
1520.61340332	2.39215684
1520.61730957	2.50980401
1520.62145996	2.56862736
1520.62145996	2.29411769
1520.62561035	2.37254906
1520.62976074	2.43137264
1520.63391113	2.31372547
1520.63391113	2.13725495
1520.63793945	2.13725495
1520.64196777	2.19607854
1520.64624023	2.25490189
1520.65039063	2.29411769
1520.65039063	2.25490189
1520.65429688	2.27450991
1520.65844727	2.29411769
1520.66259766	2.25490189
1520.66259766	2.11764717
1520.66674805	1.84313726
1520.67065430	1.96078432
1520.67480469	2.31372547
1520.67895508	2.49019599
1520.67895508	2.54901958
1520.68310547	2.49019599
1520.68713379	2.49019599
1520.69116211	2.49019599
1520.69116211	2.43137264
1520.69531250	2.43137264
1520.69958496	2.39215684
1520.70361328	2.37254906
1520.70764160	2.50980401
1520.71166992	2.58823538
1520.71594238	2.68627453
1520.71997070	2.66666675
1520.71997070	2.54901958
1520.72399902	2.47058821
1520.72827148	2.47058821
1520.73217773	2.52941179
1520.73632813	2.29411769
1520.74047852	2.25490189
1520.74438477	2.23529410
1520.74853516	2.25490189
1520.74853516	2.35294127
1520.75268555	2.41176462
1520.75683594	2.41176462
1520.76074219	2.35294127
1520.76489258	2.15686274
1520.76904297	1.90196073
1520.77319336	2.07843137
1520.77734375	2.21568632
1520.77734375	2.33333325
1520.78137207	2.37254906
1520.78540039	2.45098042
1520.78955078	2.47058821
1520.79370117	2.21568632
1520.79760742	2.25490189
1520.80187988	2.41176462
1520.80590820	2.47058821
1520.80590820	2.49019599
1520.81005859	2.56862736
1520.81420898	2.64705873
1520.81823730	2.56862736
1520.82226563	2.39215684
1520.82641602	2.39215684
1520.83044434	2.35294127
1520.83459473	2.35294127
1520.83459473	2.35294127
1520.83874512	2.39215684
1520.84277344	2.39215684
1520.84704590	2.58823538
1520.84704590	2.52941179
1520.85095215	2.50980401
1520.85510254	2.45098042
1520.85913086	2.33333325
1520.86340332	2.31372547
1520.86340332	2.31372547
1520.86730957	2.41176462
1520.87145996	2.58823538
1520.87548828	2.70588231
1520.87548828	2.70588231
1520.87963867	2.64705873
1520.88378906	2.64705873
1520.88781738	2.64705873
1520.89184570	2.64705873
1520.89184570	2.62745094
1520.89599609	2.62745094
1520.90014648	2.68627453
1520.90429688	2.39215684
1520.90429688	2.33333325
1520.90820313	2.43137264
1520.91247559	2.49019599
1520.91662598	2.43137264
1520.92065430	2.45098042
1520.92065430	2.45098042
1520.92468262	2.45098042
1520.92883301	2.45098042
1520.93298340	2.45098042
1520.93298340	2.43137264
1520.93688965	2.41176462
1520.94116211	2.43137264
1520.94519043	2.43137264
1520.94934082	2.58823538
1520.94934082	2.39215684
1520.95349121	2.23529410
1520.95739746	2.41176462
1520.96154785	2.54901958
1520.96154785	2.50980401
1520.96569824	2.49019599
1520.96984863	2.43137264
1520.97387695	2.41176462
1520.97814941	2.37254906
1520.97814941	2.47058821
1520.98205566	2.56862736
1520.98620605	2.56862736
1520.99035645	2.58823538
1520.99035645	2.62745094
1520.99426270	2.70588231
1520.99841309	2.68627453
1521.00256348	2.62745094
1521.00659180	2.58823538
1521.00659180	2.58823538
1521.01062012	2.60784316
1521.01477051	2.60784316
1521.01892090	2.45098042
1521.01892090	2.27450991
1521.02307129	2.41176462
1521.02709961	2.56862736
1521.03137207	2.62745094
1521.03527832	2.64705873
1521.03527832	2.60784316
1521.03942871	2.54901958
1521.04357910	2.49019599
1521.04760742	2.47058821
1521.04760742	2.25490189
1521.05175781	2.39215684
1521.05578613	2.50980401
1521.05993652	2.68627453
1521.06396484	2.54901958
1521.06396484	2.35294127
1521.06811523	2.33333325
1521.07214355	2.39215684
1521.07629395	2.50980401
1521.07629395	2.47058821
1521.08044434	2.33333325
1521.08447266	2.33333325
1521.08850098	2.27450991
1521.09265137	2.31372547
1521.09692383	2.35294127
1521.10083008	2.31372547
1521.10498047	2.25490189
1521.10498047	2.25490189
1521.10913086	2.25490189
1521.11315918	2.35294127
1521.11718750	2.45098042
1521.12121582	2.29411769
1521.12536621	2.33333325
1521.12951660	2.41176462
1521.13366699	2.29411769
1521.13366699	2.09803915
1521.13757324	2.23529410
1521.14172363	2.35294127
1521.14587402	2.43137264
1521.15002441	2.49019599
1521.15417480	2.47058821
1521.15808105	2.45098042
1521.16223145	2.39215684
1521.16223145	2.33333325
1521.16638184	2.47058821
1521.17041016	2.56862736
1521.17443848	2.45098042
1521.17858887	2.35294127
1521.18273926	2.31372547
1521.18688965	2.37254906
1521.19104004	2.47058821
1521.19104004	2.54901958
1521.19519043	2.58823538
1521.19921875	2.62745094
1521.20324707	2.58823538
1521.20739746	2.58823538
1521.21142578	2.66666675
1521.21557617	2.66666675
1521.21972656	2.62745094
1521.21972656	2.58823538
1521.22387695	2.58823538
1521.22778320	2.64705873
1521.23193359	2.68627453
1521.23608398	2.68627453
1521.24023438	2.64705873
1521.24414063	2.58823538
1521.24829102	2.62745094
1521.24829102	2.64705873
1521.25244141	2.62745094
1521.25659180	2.45098042
1521.26062012	2.49019599
1521.26062012	2.54901958
1521.26464844	2.62745094
1521.26879883	2.64705873
1521.27294922	2.62745094
1521.27709961	2.60784316
1521.27709961	2.54901958
1521.28125000	2.45098042
1521.28515625	2.39215684
1521.28930664	2.35294127
1521.28930664	2.39215684
1521.29345703	2.45098042
1521.29736328	2.49019599
1521.30163574	2.45098042
1521.30566406	2.41176462
1521.30566406	2.35294127
1521.30981445	2.33333325
1521.31396484	2.39215684
1521.31799316	2.49019599
1521.31799316	2.43137264
1521.32202148	2.50980401
1521.32617188	2.47058821
1521.33032227	2.37254906
1521.33435059	2.21568632
1521.33435059	2.39215684
1521.33837891	2.60784316
1521.34252930	2.70588231
1521.34655762	2.70588231
1521.34655762	2.74509811
1521.35070801	2.76470590
1521.35473633	2.70588231
1521.35888672	2.64705873
1521.36291504	2.49019599
1521.36291504	2.39215684
1521.36718750	2.39215684
1521.37109375	2.33333325
1521.37524414	2.25490189
1521.37524414	2.23529410
1521.37939453	2.19607854
1521.38354492	2.15686274
1521.38757324	2.11764717
1521.39160156	2.11764717
1521.39160156	2.09803915
1521.39587402	2.09803915
1521.40002441	2.09803915
1521.40405273	2.13725495
1521.40405273	2.15686274
1521.40820313	2.09803915
1521.41223145	2.31372547
1521.41638184	2.47058821
1521.42041016	2.49019599
1521.42041016	2.43137264
1521.42443848	2.45098042
1521.42846680	2.43137264
1521.43273926	2.35294127
1521.43273926	2.33333325
1521.43676758	2.35294127
1521.44079590	2.49019599
1521.44494629	2.68627453
1521.44921875	2.41176462
1521.44921875	2.33333325
1521.45312500	2.45098042
1521.45727539	2.52941179
1521.46130371	2.50980401
1521.46130371	2.52941179
1521.46545410	2.50980401
1521.46948242	2.47058821
1521.47363281	2.50980401
1521.47778320	2.52941179
1521.47778320	2.58823538
1521.48181152	2.47058821
1521.48596191	2.25490189
1521.48999023	2.39215684
1521.48999023	2.64705873
1521.49414063	2.80392146
1521.49816895	2.86274505
1521.50231934	2.56862736
1521.50634766	2.68627453
1521.51049805	2.90196085
1521.51452637	2.94117641
1521.51867676	2.98039222
1521.51867676	2.94117641
1521.52282715	2.80392146
1521.52685547	2.74509811
1521.53088379	2.78431368
1521.53515625	2.90196085
1521.53918457	2.98039222
1521.54321289	2.98039222
1521.54748535	2.76470590
1521.54748535	2.70588231
1521.55139160	2.70588231
1521.55554199	2.64705873
1521.55969238	2.62745094
1521.56384277	2.64705873
1521.56774902	2.60784316
1521.57189941	2.52941179
1521.57604980	2.54901958
1521.57604980	2.60784316
1521.58020020	2.50980401
1521.58422852	2.25490189
1521.58837891	2.25490189
1521.59240723	2.31372547
1521.59655762	2.50980401
1521.60070801	2.70588231
1521.60461426	2.78431368
1521.60461426	2.88235283
1521.60876465	2.90196085
1521.61303711	2.76470590
1521.61706543	2.76470590
1521.62121582	2.58823538
1521.62512207	2.56862736
1521.62927246	2.62745094
1521.63342285	2.56862736
1521.63342285	2.52941179
1521.63745117	2.47058821
1521.64147949	2.39215684
1521.64562988	2.37254906
1521.64562988	2.43137264
1521.64978027	2.45098042
1521.65393066	2.43137264
1521.65783691	2.41176462
1521.66210938	2.50980401
1521.66210938	2.50980401
1521.66613770	2.25490189
1521.67028809	2.27450991
1521.67443848	2.31372547
1521.67443848	2.29411769
1521.67834473	2.25490189
1521.68249512	2.17647052
1521.68664551	2.17647052
1521.69079590	2.05882359
1521.69079590	2.21568632
1521.69482422	2.39215684
1521.69885254	2.49019599
1521.70300293	2.43137264
1521.70300293	2.29411769
1521.70715332	2.37254906
1521.71118164	2.45098042
1521.71533203	2.45098042
1521.71948242	2.49019599
1521.71948242	2.49019599
1521.72363281	2.19607854
1521.72766113	2.31372547
1521.73168945	2.58823538
1521.73168945	2.70588231
1521.73583984	2.70588231
1521.73999023	2.70588231
1521.74401855	2.76470590
1521.74816895	2.78431368
1521.74816895	2.76470590
1521.75219727	2.74509811
1521.75634766	2.64705873
1521.76037598	2.62745094
1521.76037598	2.50980401
1521.76440430	2.58823538
1521.76855469	2.50980401
1521.77270508	2.52941179
1521.77685547	2.64705873
1521.77685547	2.49019599
1521.78088379	2.47058821
1521.78491211	2.58823538
1521.78918457	2.58823538
1521.78918457	2.56862736
1521.79321289	2.56862736
1521.79736328	2.47058821
1521.80139160	2.41176462
1521.80541992	2.45098042
1521.80541992	2.49019599
1521.80957031	2.43137264
1521.81359863	2.37254906
1521.81787109	2.45098042
1521.81787109	2.45098042
1521.82177734	2.39215684
1521.82592773	2.41176462
1521.83007813	2.50980401
1521.83422852	2.50980401
1521.83422852	2.52941179
1521.83813477	2.52941179
1521.84228516	2.41176462
1521.84643555	2.35294127
1521.84643555	2.33333325
1521.85058594	2.37254906
1521.85461426	2.33333325
1521.85864258	2.31372547
1521.86279297	2.39215684
1521.86279297	2.43137264
1521.86694336	2.54901958
1521.87097168	2.66666675
1521.87512207	2.66666675
1521.87512207	2.62745094
1521.87915039	2.58823538
1521.88330078	2.52941179
1521.88745117	2.52941179
1521.89135742	2.66666675
1521.89550781	2.60784316
1521.89965820	2.66666675
1521.90380859	2.62745094
1521.90380859	2.52941179
1521.90783691	2.52941179
1521.91186523	2.60784316
1521.91601563	2.60784316
1521.92016602	2.60784316
1521.92419434	2.76470590
1521.92822266	2.72549009
1521.93237305	2.62745094
1521.93237305	2.50980401
1521.93652344	2.49019599
1521.94067383	2.50980401
1521.94470215	2.49019599
1521.94873047	2.37254906
1521.95288086	2.43137264
1521.95703125	2.50980401
1521.96118164	2.49019599
1521.96118164	2.47058821
1521.96508789	2.45098042
1521.96923828	2.45098042
1521.97338867	2.50980401
1521.97753906	2.47058821
1521.98156738	2.50980401
1521.98559570	2.56862736
1521.98974609	2.60784316
1521.98974609	2.54901958
1521.99389648	2.50980401
1521.99792480	2.50980401
1522.00219727	2.27450991
1522.00610352	2.33333325
1522.01025391	2.62745094
1522.01428223	2.76470590
1522.01843262	2.80392146
1522.01843262	2.86274505
1522.02246094	2.90196085
1522.02661133	2.72549009
1522.03076172	2.66666675
1522.03479004	2.74509811
1522.03894043	2.74509811
1522.04296875	2.58823538
1522.04711914	2.47058821
1522.04711914	2.41176462
1522.05114746	2.45098042
1522.05529785	2.58823538
1522.05932617	2.70588231
1522.05932617	2.70588231
1522.06359863	2.62745094
1522.06762695	2.62745094
1522.07165527	2.68627453
1522.07580566	2.68627453
1522.07580566	2.58823538
1522.07983398	2.56862736
1522.08410645	2.56862736
1522.08813477	2.58823538
1522.08813477	2.60784316
1522.09216309	2.56862736
1522.09619141	2.56862736
1522.10046387	2.60784316
1522.10449219	2.60784316
1522.10449219	2.56862736
1522.10852051	2.60784316
1522.11267090	2.64705873
1522.11682129	2.64705873
1522.11682129	2.60784316
1522.12097168	2.52941179
1522.12487793	2.54901958
1522.12915039	2.60784316
1522.13317871	2.64705873
1522.13317871	2.60784316
1522.13732910	2.60784316
1522.14123535	2.70588231
1522.14538574	2.66666675
1522.14538574	2.58823538
1522.14953613	2.54901958
1522.15368652	2.52941179
1522.15783691	2.54901958
1522.16174316	2.50980401
1522.16174316	2.39215684
1522.16601563	2.27450991
1522.17004395	1.92156863
1522.17419434	1.90196073
1522.17419434	2.23529410
1522.17822266	2.52941179
1522.18225098	2.66666675
1522.18640137	2.70588231
1522.19055176	2.70588231
1522.19055176	2.62745094
1522.19458008	2.58823538
1522.19860840	2.62745094
1522.20288086	2.64705873
1522.20288086	2.60784316
1522.20690918	2.52941179
1522.21093750	2.50980401
1522.21520996	2.54901958
1522.21923828	2.49019599
1522.21923828	2.41176462
1522.22326660	2.50980401
1522.22741699	2.66666675
1522.23144531	2.68627453
1522.23144531	2.62745094
1522.23559570	2.49019599
1522.23974609	2.39215684
1522.24377441	2.43137264
1522.24792480	2.50980401
1522.24792480	2.47058821
1522.25195313	2.52941179
1522.25610352	2.70588231
1522.26013184	2.56862736
1522.26013184	2.29411769
1522.26428223	2.31372547
1522.26831055	2.43137264
1522.27233887	2.60784316
1522.27648926	2.66666675
1522.28063965	2.58823538
1522.28466797	2.58823538
1522.28869629	2.60784316
1522.28869629	2.64705873
1522.29284668	2.60784316
1522.29699707	2.45098042
1522.30126953	2.25490189
1522.30517578	2.50980401
1522.30932617	2.70588231
1522.31335449	2.64705873
1522.31762695	2.52941179
1522.31762695	2.45098042
1522.32141113	2.39215684
1522.32556152	2.39215684
1522.32971191	2.45098042
1522.33386230	2.45098042
1522.33789063	2.41176462
1522.34216309	2.29411769
1522.34619141	2.25490189
1522.34619141	2.27450991
1522.35034180	2.29411769
1522.35437012	2.39215684
1522.35839844	2.43137264
1522.36254883	2.39215684
1522.36669922	2.31372547
1522.37084961	2.31372547
1522.37487793	2.43137264
1522.37487793	2.52941179
1522.37890625	2.41176462
1522.38305664	2.31372547
1522.38720703	2.47058821
1522.39111328	2.64705873
1522.39526367	2.76470590
1522.39941406	2.76470590
1522.40356445	2.84313726
1522.40356445	2.70588231
1522.40771484	2.50980401
1522.41174316	2.54901958
1522.41589355	2.66666675
1522.41589355	2.70588231
1522.41992188	2.70588231
1522.42407227	2.49019599
1522.42822266	2.23529410
1522.43212891	2.41176462
1522.43212891	2.64705873
1522.43627930	2.66666675
1522.44042969	2.58823538
1522.44458008	2.56862736
1522.44458008	2.56862736
1522.44848633	2.50980401
1522.45263672	2.41176462
1522.45678711	2.39215684
1522.46093750	2.39215684
1522.46093750	2.39215684
1522.46496582	2.35294127
1522.46911621	2.31372547
1522.47314453	2.31372547
1522.47314453	2.33333325
1522.47729492	2.35294127
1522.48132324	2.37254906
1522.48535156	2.21568632
1522.48950195	2.15686274
1522.48950195	2.23529410
1522.49365234	2.21568632
1522.49780273	1.98039210
1522.50183105	1.92156863
1522.50183105	2.01960778
1522.50598145	2.13725495
1522.51000977	2.17647052
1522.51416016	2.13725495
1522.51831055	2.03921580
1522.51831055	1.96078432
1522.52233887	2.09803915
1522.52636719	2.13725495
1522.53051758	2.19607854
1522.53051758	2.41176462
1522.53454590	2.64705873
1522.53857422	2.68627453
1522.54272461	2.64705873
1522.54687500	2.70588231
1522.54687500	2.74509811
1522.55114746	2.84313726
1522.55517578	2.78431368
1522.55908203	2.68627453
1522.55908203	2.90196085
1522.56335449	3.03921580
1522.56738281	3.05882359
1522.57128906	3.01960778
1522.57543945	2.96078420
1522.57543945	2.92156863
1522.57971191	2.86274505
1522.58386230	2.80392146
1522.58789063	2.70588231
1522.58789063	2.66666675
1522.59191895	2.72549009
1522.59606934	2.82352948
1522.60021973	2.66666675
1522.60424805	2.47058821
1522.60424805	2.41176462
1522.60827637	2.50980401
1522.61242676	2.56862736
1522.61657715	2.56862736
1522.61657715	2.29411769
1522.62060547	2.17647052
1522.62463379	2.33333325
1522.62878418	2.47058821
1522.63281250	2.49019599
1522.63281250	2.58823538
1522.63696289	2.70588231
1522.64111328	2.49019599
1522.64514160	2.39215684
1522.64514160	2.39215684
1522.64929199	2.47058821
1522.65344238	2.50980401
1522.65747070	2.47058821
1522.66149902	2.41176462
1522.66564941	2.45098042
1522.66979980	2.45098042
1522.67395020	2.52941179
1522.67395020	2.58823538
1522.67785645	2.52941179
1522.68225098	2.39215684
1522.68615723	2.19607854
1522.69030762	2.25490189
1522.69445801	2.52941179
1522.69836426	2.54901958
1522.70251465	2.43137264
1522.70251465	2.41176462
1522.70666504	2.45098042
1522.71081543	2.50980401
1522.71472168	2.52941179
1522.71887207	2.23529410
1522.72302246	2.21568632
1522.72717285	2.21568632
1522.73132324	2.13725495
1522.73132324	2.25490189
1522.73522949	2.41176462
1522.73937988	2.41176462
1522.74353027	2.45098042
1522.74768066	2.66666675
1522.75170898	2.70588231
1522.75573730	2.47058821
1522.76000977	2.35294127
1522.76000977	2.31372547
1522.76403809	2.25490189
1522.76806641	2.27450991
1522.77209473	2.31372547
1522.77624512	2.37254906
1522.78039551	2.37254906
1522.78454590	2.41176462
1522.78857422	2.25490189
1522.78857422	2.15686274
1522.79260254	2.35294127
1522.79675293	2.52941179
1522.80090332	2.56862736
1522.80090332	2.54901958
1522.80493164	2.50980401
1522.80920410	2.43137264
1522.81323242	2.39215684
1522.81726074	2.33333325
1522.81726074	2.39215684
1522.82128906	2.35294127
1522.82543945	2.29411769
1522.82946777	2.27450991
1522.82946777	2.37254906
1522.83361816	2.47058821
1522.83776855	2.31372547
1522.84179688	2.03921580
1522.84582520	2.11764717
1522.84582520	2.29411769
1522.85009766	2.43137264
1522.85412598	2.54901958
1522.85827637	2.58823538
1522.85827637	2.76470590
1522.86218262	2.62745094
1522.86645508	2.47058821
1522.87048340	2.50980401
1522.87463379	2.54901958
1522.87463379	2.56862736
1522.87866211	2.62745094
1522.88281250	2.60784316
1522.88684082	2.62745094
1522.88684082	2.64705873
1522.89111328	2.72549009
1522.89514160	2.78431368
1522.89916992	2.72549009
1522.90319824	2.68627453
1522.90319824	2.68627453
1522.90747070	2.62745094
1522.91137695	2.66666675
1522.91552734	2.70588231
1522.91552734	2.72549009
1522.91967773	2.49019599
1522.92382813	2.31372547
1522.92797852	2.43137264
1522.93188477	2.60784316
1522.93188477	2.78431368
1522.93603516	2.66666675
1522.94018555	2.47058821
1522.94433594	2.52941179
1522.94433594	2.58823538
1522.94824219	2.60784316
1522.95239258	2.64705873
1522.95654297	2.70588231
1522.96069336	2.74509811
1522.96069336	2.70588231
1522.96472168	2.64705873
1522.96875000	2.58823538
1522.97302246	2.76470590
1522.97302246	2.78431368
1522.97705078	2.60784316
1522.98120117	2.50980401
1522.98522949	2.47058821
1522.98925781	2.41176462
1522.98925781	2.52941179
1522.99340820	2.62745094
1522.99755859	2.56862736
1523.00170898	2.49019599
1523.00170898	2.41176462
1523.00573730	2.39215684
1523.00976563	2.45098042
1523.01379395	2.58823538
1523.01806641	2.64705873
1523.01806641	2.60784316
1523.02221680	2.45098042
1523.02612305	2.41176462
1523.03027344	2.45098042
1523.03027344	2.54901958
1523.03442383	2.47058821
1523.03833008	2.43137264
1523.04248047	2.35294127
1523.04663086	2.45098042
1523.05078125	2.56862736
1523.05480957	2.56862736
1523.05883789	2.54901958
1523.05883789	2.45098042
1523.06298828	2.37254906
1523.06713867	2.23529410
1523.07128906	2.17647052
1523.07531738	2.33333325
1523.07934570	2.35294127
1523.08349609	2.37254906
1523.08764648	2.45098042
1523.08764648	2.47058821
1523.09167480	2.33333325
1523.09570313	2.15686274
1523.09985352	2.27450991
1523.10400391	2.60784316
1523.10815430	2.78431368
1523.11206055	2.56862736
1523.11633301	2.35294127
1523.11633301	2.37254906
1523.12036133	2.35294127
1523.12451172	2.31372547
1523.12854004	2.29411769
1523.13269043	2.41176462
1523.13671875	2.41176462
1523.14099121	2.41176462
1523.14501953	2.41176462
1523.14501953	2.37254906
1523.14916992	2.35294127
1523.15307617	2.35294127
1523.15734863	2.39215684
1523.16137695	2.39215684
1523.16540527	2.33333325
1523.16943359	2.25490189
1523.17358398	2.13725495
1523.17358398	2.07843137
1523.17773438	2.13725495
1523.18176270	2.25490189
1523.18591309	2.37254906
1523.18591309	2.43137264
1523.18994141	2.50980401
1523.19409180	2.54901958
1523.19812012	2.54901958
1523.20227051	2.41176462
1523.20227051	2.37254906
1523.20642090	2.35294127
1523.21057129	2.41176462
1523.21472168	2.47058821
1523.21472168	2.49019599
1523.21862793	2.47058821
1523.22265625	2.47058821
1523.22680664	2.39215684
1523.23107910	2.47058821
1523.23107910	2.52941179
1523.23510742	2.60784316
1523.23913574	2.56862736
1523.24328613	2.50980401
1523.24328613	2.62745094
1523.24731445	2.68627453
1523.25158691	2.23529410
1523.25561523	2.11764717
1523.25964355	2.23529410
1523.25964355	2.41176462
1523.26379395	2.56862736
1523.26782227	2.64705873
1523.27185059	2.68627453
1523.27185059	2.68627453
1523.27624512	2.66666675
1523.28015137	2.66666675
1523.28430176	2.74509811
1523.28833008	2.84313726
1523.28833008	2.90196085
1523.29235840	2.92156863
1523.29650879	2.98039222
1523.30078125	2.98039222
1523.30078125	2.92156863
1523.30480957	2.80392146
1523.30883789	2.72549009
1523.31298828	2.76470590
1523.31713867	2.94117641
1523.31713867	2.96078420
1523.32116699	2.88235283
1523.32519531	2.84313726
1523.32922363	2.86274505
1523.32922363	2.92156863
1523.33337402	2.92156863
1523.33752441	2.86274505
1523.34143066	2.90196085
1523.34558105	2.84313726
1523.34558105	2.76470590
1523.34973145	2.72549009
1523.35388184	2.72549009
1523.35803223	2.78431368
1523.35803223	2.80392146
1523.36218262	2.78431368
1523.36621094	2.74509811
1523.37023926	2.68627453
1523.37438965	2.72549009
1523.37438965	2.86274505
1523.37841797	2.82352948
1523.38256836	2.56862736
1523.38659668	2.41176462
1523.38659668	2.47058821
1523.39074707	2.54901958
1523.39477539	2.54901958
1523.39892578	2.52941179
1523.40307617	2.52941179
1523.40307617	2.29411769
1523.40710449	2.31372547
1523.41125488	2.47058821
1523.41528320	2.66666675
1523.41528320	2.56862736
1523.41943359	2.54901958
1523.42346191	2.41176462
1523.42761230	2.15686274
1523.43176270	2.43137264
1523.43579102	2.43137264
1523.43981934	2.35294127
1523.44396973	2.31372547
1523.44396973	2.29411769
1523.44812012	2.31372547
1523.45214844	2.33333325
1523.45617676	2.35294127
1523.46032715	2.23529410
1523.46447754	2.21568632
1523.46850586	2.21568632
1523.47265625	2.09803915
1523.47265625	2.00000000
1523.47680664	2.05882359
1523.48083496	2.17647052
1523.48498535	2.33333325
1523.48913574	2.41176462
1523.49316406	2.39215684
1523.49719238	2.39215684
1523.50146484	2.35294127
1523.50146484	2.35294127
1523.50549316	2.45098042
1523.50952148	2.49019599
1523.51367188	2.49019599
1523.51770020	2.68627453
1523.52172852	2.50980401
1523.52587891	2.41176462
1523.53015137	2.37254906
1523.53015137	2.37254906
1523.53417969	2.45098042
1523.53820801	2.47058821
1523.54223633	2.33333325
1523.54638672	2.72549009
1523.55053711	2.82352948
1523.55456543	2.78431368
1523.55859375	2.76470590
1523.55859375	2.70588231
1523.56274414	2.66666675
1523.56689453	2.66666675
1523.57092285	2.64705873
1523.57092285	2.60784316
1523.57507324	2.52941179
1523.57910156	2.50980401
1523.58325195	2.45098042
1523.58740234	2.50980401
1523.58740234	2.41176462
1523.59155273	2.41176462
1523.59545898	2.49019599
1523.59960938	2.56862736
1523.59960938	2.52941179
1523.60375977	2.52941179
1523.60791016	2.50980401
1523.61181641	2.49019599
1523.61621094	2.49019599
1523.61621094	2.52941179
1523.62023926	2.47058821
1523.62426758	2.47058821
1523.62841797	2.31372547
1523.62841797	2.35294127
1523.63244629	2.45098042
1523.63659668	2.39215684
1523.64062500	2.41176462
1523.64477539	2.45098042
1523.64477539	2.39215684
1523.64880371	2.41176462
1523.65283203	2.54901958
1523.65698242	2.60784316
1523.65698242	2.60784316
1523.66113281	2.60784316
1523.66516113	2.56862736
1523.66918945	2.58823538
1523.67333984	2.64705873
1523.67333984	2.52941179
1523.67749023	2.33333325
1523.68164063	2.41176462
1523.68566895	2.64705873
1523.68566895	2.76470590
1523.68969727	2.72549009
1523.69384766	2.62745094
1523.69799805	2.68627453
1523.70214844	2.80392146
1523.70214844	2.76470590
1523.70617676	2.66666675
1523.71032715	2.70588231
1523.71435547	2.72549009
1523.71435547	2.72549009
1523.71838379	2.66666675
1523.72253418	2.54901958
1523.72668457	2.54901958
1523.73083496	2.64705873
1523.73083496	2.54901958
1523.73486328	2.49019599
1523.73901367	2.50980401
1523.74316406	2.64705873
1523.74316406	2.58823538
1523.74719238	2.45098042
1523.75134277	2.49019599
1523.75524902	2.52941179
1523.75939941	2.54901958
1523.75939941	2.56862736
1523.76367188	2.58823538
1523.76770020	2.54901958
1523.77172852	2.45098042
1523.77172852	2.43137264
1523.77575684	2.33333325
1523.77978516	2.25490189
1523.78405762	2.35294127
1523.78820801	2.47058821
1523.78820801	2.50980401
1523.79211426	2.49019599
1523.79626465	2.39215684
1523.80041504	2.31372547
1523.80041504	2.35294127
1523.80444336	2.41176462
1523.80847168	2.45098042
1523.81262207	2.50980401
1523.81689453	2.54901958
1523.82092285	2.64705873
1523.82507324	2.70588231
1523.82910156	2.68627453
1523.82910156	2.41176462
1523.83312988	2.49019599
1523.83728027	2.58823538
1523.84143066	2.56862736
1523.84533691	2.52941179
1523.84948730	2.54901958
1523.85363770	2.54901958
1523.85778809	2.58823538
1523.85778809	2.49019599
1523.86181641	2.35294127
1523.86596680	2.31372547
1523.87011719	2.37254906
1523.87414551	2.50980401
1523.87817383	2.45098042
1523.88232422	2.35294127
1523.88647461	2.13725495
1523.88647461	2.19607854
1523.89050293	2.29411769
1523.89465332	2.41176462
1523.89868164	2.52941179
1523.90270996	2.60784316
1523.90686035	2.68627453
1523.91101074	2.68627453
1523.91516113	2.64705873
1523.91516113	2.56862736
1523.91906738	2.41176462
1523.92321777	2.49019599
1523.92736816	2.64705873
1523.93151855	2.80392146
1523.93542480	2.60784316
1523.93969727	2.56862736
1523.94372559	2.62745094
1523.94372559	2.56862736
1523.94799805	2.54901958
1523.95190430	2.49019599
1523.95617676	2.47058821
1523.95617676	2.52941179
1523.96020508	2.50980401
1523.96423340	2.49019599
1523.96826172	2.47058821
1523.97241211	2.43137264
1523.97241211	2.35294127
1523.97656250	2.33333325
1523.98071289	2.25490189
1523.98486328	2.31372547
1523.98486328	2.41176462
1523.98876953	2.47058821
1523.99291992	2.52941179
1523.99707031	2.54901958
1524.00122070	2.52941179
1524.00122070	2.47058821
1524.00512695	2.21568632
1524.00927734	2.27450991
1524.01342773	2.39215684
1524.01342773	2.52941179
1524.01745605	2.58823538
1524.02160645	2.49019599
1524.02563477	2.41176462
1524.02966309	2.64705873
1524.02966309	2.64705873
1524.03393555	2.60784316
1524.03796387	2.62745094
1524.04211426	2.54901958
1524.04211426	2.35294127
1524.04614258	2.23529410
1524.05029297	2.25490189
1524.05444336	2.37254906
1524.05859375	2.39215684
1524.05859375	2.31372547
1524.06250000	2.23529410
1524.06677246	2.31372547
1524.07080078	2.41176462
1524.07080078	2.49019599
1524.07495117	2.50980401
1524.07897949	2.41176462
1524.08300781	2.29411769
1524.08703613	2.25490189
1524.08703613	2.21568632
1524.09118652	2.33333325
1524.09521484	2.50980401
1524.09936523	2.58823538
1524.09936523	2.54901958
1524.10351563	2.62745094
1524.10754395	2.66666675
1524.11169434	2.54901958
1524.11572266	2.27450991
1524.11572266	2.35294127
1524.11987305	2.35294127
1524.12402344	2.45098042
1524.12817383	2.54901958
1524.12817383	2.66666675
1524.13208008	2.60784316
1524.13623047	2.49019599
1524.14025879	2.45098042
1524.14440918	2.45098042
1524.14440918	2.50980401
1524.14843750	2.52941179
1524.15258789	2.49019599
1524.15673828	2.43137264
1524.15673828	2.33333325
1524.16088867	2.27450991
1524.16503906	2.25490189
1524.16906738	2.31372547
1524.17309570	2.23529410
1524.17724609	2.31372547
1524.18139648	2.52941179
1524.18554688	2.60784316
1524.18554688	2.66666675
1524.18957520	2.68627453
1524.19372559	2.64705873
1524.19775391	2.66666675
1524.20202637	2.68627453
1524.20593262	2.66666675
1524.21008301	2.68627453
1524.21411133	2.74509811
1524.21411133	2.76470590
1524.21826172	2.74509811
1524.22229004	2.50980401
1524.22644043	2.54901958
1524.23046875	2.98039222
1524.23461914	2.80392146
1524.23864746	2.76470590
1524.24279785	2.66666675
1524.24279785	2.64705873
1524.24682617	2.70588231
1524.25097656	2.78431368
1524.25512695	2.72549009
1524.25915527	2.50980401
1524.26318359	2.45098042
1524.26733398	2.41176462
1524.27136230	2.33333325
1524.27136230	2.21568632
1524.27551270	2.39215684
1524.27966309	2.56862736
1524.28381348	2.64705873
1524.28784180	2.76470590
1524.29187012	2.74509811
1524.29614258	2.68627453
1524.30017090	2.52941179
1524.30017090	2.37254906
1524.30419922	2.19607854
1524.30834961	2.13725495
1524.31250000	2.15686274
1524.31250000	2.13725495
1524.31652832	2.23529410
1524.32055664	2.37254906
1524.32470703	2.43137264
1524.32885742	2.43137264
1524.32885742	2.54901958
1524.33288574	2.49019599
1524.33703613	2.25490189
1524.34118652	2.25490189
1524.34118652	2.23529410
1524.34521484	2.23529410
1524.34936523	2.29411769
1524.35339355	2.35294127
1524.35742188	2.37254906
1524.35742188	2.39215684
1524.36157227	2.39215684
1524.36560059	2.35294127
1524.36975098	2.25490189
1524.36975098	2.39215684
1524.37390137	2.54901958
1524.37805176	2.60784316
1524.38208008	2.60784316
1524.38610840	2.66666675
1524.38610840	2.68627453
1524.39025879	2.72549009
1524.39440918	2.76470590
1524.39843750	2.72549009
1524.39843750	2.62745094
1524.40246582	2.60784316
1524.40661621	2.49019599
1524.41064453	2.49019599
1524.41479492	2.60784316
1524.41479492	2.76470590
1524.41882324	2.84313726
1524.42309570	2.84313726
1524.42712402	2.88235283
1524.42712402	2.92156863
1524.43127441	2.72549009
1524.43530273	2.84313726
1524.43945313	2.84313726
1524.44348145	2.72549009
1524.44348145	2.60784316
1524.44763184	2.49019599
1524.45178223	2.47058821
1524.45593262	2.47058821
1524.45593262	2.50980401
1524.45983887	2.47058821
1524.46411133	2.50980401
1524.46813965	2.52941179
1524.47229004	2.56862736
1524.47229004	2.52941179
1524.47631836	2.35294127
1524.48034668	2.41176462
1524.48449707	2.54901958
1524.48449707	2.56862736
1524.48840332	2.50980401
1524.49255371	2.47058821
1524.49670410	2.41176462
1524.50085449	2.29411769
1524.50085449	2.31372547
1524.50500488	2.39215684
1524.50915527	2.31372547
1524.51306152	2.31372547
1524.51306152	2.35294127
1524.51721191	2.29411769
1524.52136230	2.31372547
1524.52539063	2.25490189
1524.52954102	2.27450991
1524.52954102	2.27450991
1524.53356934	2.35294127
1524.53771973	2.56862736
1524.54187012	2.58823538
1524.54187012	2.43137264
1524.54577637	2.50980401
1524.55004883	2.54901958
1524.55407715	2.56862736
1524.55822754	2.56862736
1524.55822754	2.52941179
1524.56225586	2.47058821
1524.56640625	2.47058821
1524.57055664	2.47058821
1524.57055664	2.50980401
1524.57458496	2.54901958
1524.57873535	2.39215684
1524.58276367	2.25490189
1524.58691406	2.62745094
1524.59094238	2.78431368
1524.59509277	2.86274505
1524.59912109	2.76470590
1524.59912109	2.60784316
1524.60314941	2.47058821
1524.60729980	2.37254906
1524.61145020	2.43137264
1524.61547852	2.56862736
1524.61950684	2.58823538
1524.62377930	2.50980401
1524.62792969	2.49019599
1524.62792969	2.49019599
1524.63195801	2.45098042
1524.63610840	2.47058821
1524.64013672	2.58823538
1524.64428711	2.68627453
1524.64843750	2.72549009
1524.65234375	2.74509811
1524.65649414	2.74509811
1524.65649414	2.70588231
1524.66064453	2.68627453
1524.66479492	2.70588231
1524.66882324	2.68627453
1524.67285156	2.66666675
1524.67700195	2.66666675
1524.68115234	2.64705873
1524.68530273	2.62745094
1524.68530273	2.66666675
1524.68933105	2.70588231
1524.69348145	2.74509811
1524.69750977	2.68627453
1524.70166016	2.68627453
1524.70568848	2.70588231
1524.70983887	2.80392146
1524.71386719	2.58823538
1524.71386719	2.52941179
1524.71801758	2.54901958
1524.72216797	2.54901958
1524.72619629	2.66666675
1524.72619629	2.70588231
1524.73022461	2.68627453
1524.73437500	2.68627453
1524.73852539	2.90196085
1524.74255371	2.98039222
1524.74255371	2.84313726
1524.74670410	2.80392146
1524.75085449	2.76470590
1524.75488281	2.74509811
1524.75488281	2.72549009
1524.75891113	2.70588231
1524.76318359	2.64705873
1524.76721191	2.58823538
1524.77124023	2.54901958
1524.77124023	2.52941179
1524.77526855	2.50980401
1524.77941895	2.54901958
1524.78356934	2.49019599
1524.78356934	2.45098042
1524.78759766	2.45098042
1524.79174805	2.39215684
1524.79577637	2.41176462
1524.79992676	2.39215684
1524.79992676	2.29411769
1524.80395508	2.27450991
1524.80810547	2.29411769
1524.81225586	2.27450991
1524.81225586	2.23529410
1524.81628418	2.23529410
1524.82043457	2.07843137
1524.82458496	2.11764717
1524.82873535	2.11764717
1524.82873535	2.05882359
1524.83264160	2.19607854
1524.83679199	2.31372547
1524.84094238	2.27450991
1524.84094238	2.15686274
1524.84509277	2.11764717
1524.84912109	2.13725495
1524.85314941	2.13725495
1524.85717773	2.05882359
1524.85717773	2.15686274
1524.86132813	2.35294127
1524.86547852	2.19607854
1524.86950684	2.11764717
1524.86950684	1.92156863
1524.87353516	2.05882359
1524.87768555	2.25490189
1524.88183594	2.37254906
1524.88586426	2.41176462
1524.88586426	2.45098042
1524.89013672	2.43137264
1524.89404297	2.52941179
1524.89819336	2.64705873
1524.89819336	2.64705873
1524.90222168	2.50980401
1524.90637207	2.50980401
1524.91052246	2.60784316
1524.91467285	2.47058821
1524.91467285	2.49019599
1524.91857910	2.64705873
1524.92272949	2.68627453
1524.92687988	2.70588231
1524.92687988	2.80392146
1524.93090820	2.84313726
1524.93505859	2.84313726
1524.93908691	2.70588231
1524.94323730	2.64705873
1524.94323730	2.62745094
1524.94738770	2.80392146
1524.95153809	2.62745094
1524.95556641	2.47058821
1524.95556641	2.45098042
1524.95959473	2.49019599
1524.96374512	2.54901958
1524.96777344	2.60784316
1524.97192383	2.54901958
1524.97607422	2.33333325
1524.98010254	2.41176462
1524.98425293	2.47058821
1524.98425293	2.50980401
1524.98840332	2.52941179
1524.99230957	2.52941179
1524.99645996	2.45098042
1525.00061035	2.41176462
1525.00476074	2.37254906
1525.00878906	2.43137264
1525.01281738	2.35294127
1525.01281738	2.31372547
1525.01696777	2.43137264
1525.02111816	2.49019599
1525.02526855	2.52941179
1525.02929688	2.50980401
1525.03332520	2.52941179
1525.03747559	2.54901958
1525.04162598	2.52941179
1525.04162598	2.52941179
1525.04565430	2.54901958
1525.04980469	2.56862736
1525.05383301	2.54901958
1525.05798340	2.62745094
1525.06213379	2.58823538
1525.06616211	2.52941179
1525.07019043	2.50980401
1525.07019043	2.52941179
1525.07434082	2.66666675
1525.07849121	2.64705873
1525.08251953	2.33333325
1525.08654785	2.33333325
1525.09082031	2.43137264
1525.09497070	2.56862736
1525.09899902	2.64705873
1525.09899902	2.49019599
1525.10314941	2.25490189
1525.10705566	2.35294127
1525.11132813	2.54901958
1525.11132813	2.52941179
1525.11535645	2.60784316
1525.11938477	2.60784316
1525.12341309	2.58823538
1525.12756348	2.56862736
1525.12756348	2.52941179
1525.13171387	2.50980401
1525.13574219	2.49019599
1525.13989258	2.50980401
1525.13989258	2.37254906
1525.14404297	2.23529410
1525.14819336	2.25490189
1525.15234375	2.45098042
1525.15625000	2.52941179
1525.15625000	2.45098042
1525.16040039	2.39215684
1525.16455078	2.31372547
1525.16870117	2.25490189
1525.16870117	2.29411769
1525.17260742	2.37254906
1525.17675781	2.47058821
1525.18090820	2.50980401
1525.18493652	2.31372547
1525.18493652	2.33333325
1525.18920898	2.37254906
1525.19311523	2.39215684
1525.19726563	2.43137264
1525.19726563	2.43137264
1525.20141602	2.45098042
1525.20544434	2.45098042
1525.20947266	2.49019599
1525.21362305	2.49019599
1525.21362305	2.25490189
1525.21777344	2.35294127
1525.22180176	2.60784316
1525.22607422	2.68627453
1525.22607422	2.66666675
1525.23010254	2.64705873
1525.23400879	2.60784316
1525.23815918	2.56862736
1525.24243164	2.60784316
1525.24243164	2.56862736
1525.24633789	2.58823538
1525.25048828	2.50980401
1525.25463867	2.49019599
1525.25463867	2.50980401
1525.25878906	2.45098042
1525.26269531	2.49019599
1525.26684570	2.50980401
1525.27099609	2.54901958
1525.27099609	2.56862736
1525.27502441	2.54901958
1525.27905273	2.47058821
1525.28320313	2.41176462
1525.28320313	2.37254906
1525.28735352	2.45098042
1525.29138184	2.50980401
1525.29553223	2.47058821
1525.29956055	2.49019599
1525.29956055	2.58823538
1525.30371094	2.64705873
1525.30786133	2.45098042
1525.31188965	2.37254906
1525.31188965	2.39215684
1525.31604004	2.45098042
1525.32006836	2.35294127
1525.32421875	2.33333325
1525.32836914	2.56862736
1525.32836914	2.66666675
1525.33239746	2.47058821
1525.33642578	2.43137264
1525.34057617	2.58823538
1525.34057617	2.72549009
1525.34472656	2.74509811
1525.34887695	2.70588231
1525.35278320	2.62745094
1525.35717773	2.56862736
1525.36096191	2.58823538
1525.36511230	2.68627453
1525.36926270	2.70588231
1525.36926270	2.62745094
1525.37329102	2.52941179
1525.37744141	2.62745094
1525.38159180	2.74509811
1525.38562012	2.96078420
1525.38964844	2.90196085
1525.39379883	2.78431368
1525.39794922	2.64705873
1525.39794922	2.60784316
1525.40209961	2.68627453
1525.40600586	2.72549009
1525.41015625	2.74509811
1525.41430664	2.60784316
1525.41845703	2.68627453
1525.42236328	2.64705873
1525.42651367	2.68627453
1525.42651367	2.54901958
1525.43078613	2.52941179
1525.43481445	2.70588231
1525.43896484	2.72549009
1525.44311523	2.64705873
1525.44726563	2.58823538
1525.45129395	2.64705873
1525.45544434	2.58823538
1525.45544434	2.62745094
1525.45935059	2.74509811
1525.46350098	2.68627453
1525.46765137	2.72549009
1525.47180176	3.35294127
1525.47570801	3.74509811
1525.47985840	4.03921556
1525.48413086	4.64705896
1525.48413086	4.98039198
1525.48815918	4.98039198
1525.49218750	4.98039198
1525.49621582	4.64705896
1525.49621582	3.54901958
1525.50036621	2.31372547
1525.50451660	1.47058821
1525.50854492	0.50980395
1525.51281738	0.01960784
1525.51281738	0.01960784
1525.51684570	0.01960784
1525.52087402	0.01960784
1525.52502441	0.01960784
1525.52502441	0.01960784
1525.52917480	0.01960784
1525.53320313	0.01960784
1525.53723145	0.01960784
1525.54138184	0.01960784
1525.54138184	0.01960784
1525.54553223	0.01960784
1525.54956055	0.00000000
1525.55371094	0.01960784
1525.55371094	0.01960784
1525.55773926	0.41176471
1525.56188965	1.60784316
1525.56591797	2.86274505
1525.57006836	4.00000000
1525.57006836	4.98039198
1525.57409668	4.58823538
1525.57824707	4.09803915
1525.58239746	3.82352948
1525.58239746	4.09803915
1525.58642578	4.50980377
1525.59045410	4.98039198
1525.59460449	4.98039198
1525.59875488	4.92156839
1525.59875488	4.27450991
1525.60278320	3.13725495
1525.60681152	2.52941179
1525.61108398	2.68627453
1525.61108398	2.94117641
1525.61511230	3.13725495
1525.61914063	3.05882359
1525.62329102	2.58823538
1525.62744141	2.27450991
1525.62744141	2.03921580
1525.63159180	2.17647052
1525.63562012	2.01960778
1525.63964844	2.56862736
1525.63964844	2.78431368
1525.64379883	3.03921580
1525.64794922	3.23529410
1525.65197754	3.00000000
1525.65612793	3.09803915
1525.65612793	3.23529410
1525.66015625	3.15686274
1525.66442871	3.21568632
1525.66845703	3.47058821
1525.66845703	3.68627453
1525.67236328	3.74509811
1525.67639160	3.70588231
1525.68054199	3.70588231
1525.68469238	3.62745094
1525.68469238	3.52941179
1525.68884277	3.41176462
1525.69287109	3.05882359
1525.69702148	2.78431368
1525.69702148	2.98039222
1525.70117188	3.15686274
1525.70520020	3.25490189
1525.70922852	3.41176462
1525.71325684	3.43137264
1525.71325684	3.00000000
1525.71740723	2.96078420
1525.72155762	2.84313726
1525.72570801	2.78431368
1525.72570801	2.94117641
1525.72961426	3.23529410
1525.73388672	3.39215684
1525.73791504	3.31372547
1525.74206543	3.19607854
1525.74609375	3.01960778
1525.75024414	2.80392146
1525.75439453	2.70588231
1525.75439453	2.50980401
1525.75854492	2.23529410
1525.76245117	2.00000000
1525.76660156	1.76470590
1525.77075195	1.11764705
1525.77490234	0.74509805
1525.77905273	0.78431374
1525.78320313	1.00000000
1525.78320313	1.29411769
1525.78710938	1.62745094
1525.79138184	1.68627453
1525.79541016	1.50980389
1525.79943848	1.54901958
1525.80346680	1.56862748
1525.80761719	1.74509799
1525.81176758	2.01960778
1525.81176758	2.21568632
1525.81579590	2.27450991
1525.81982422	2.60784316
1525.82409668	2.47058821
1525.82812500	2.07843137
1525.83227539	2.09803915
1525.83618164	2.39215684
1525.84033203	2.76470590
1525.84033203	3.03921580
1525.84448242	3.15686274
1525.84863281	3.15686274
1525.85266113	3.07843137
1525.85668945	3.09803915
1525.86083984	3.09803915
1525.86499023	3.09803915
1525.86901855	3.09803915
1525.86901855	3.07843137
1525.87304688	3.25490189
1525.87719727	3.33333325
1525.88134766	3.37254906
1525.88134766	3.27450991
1525.88549805	3.37254906
1525.88952637	3.45098042
1525.89355469	3.41176462
1525.89770508	3.43137264
1525.89770508	3.64705873
1525.90185547	3.72549009
1525.90588379	3.64705873
1525.91015625	3.58823538
1525.91015625	3.43137264
1525.91406250	3.25490189
1525.91821289	3.13725495
1525.92224121	3.11764717
1525.92626953	3.01960778
1525.92626953	3.13725495
1525.93054199	3.29411769
1525.93457031	3.39215684
1525.93872070	3.43137264
1525.93872070	3.47058821
1525.94274902	3.27450991
1525.94677734	3.15686274
1525.95104980	3.17647052
1525.95507813	3.13725495
1525.95507813	3.13725495
1525.95922852	3.11764717
1525.96325684	3.05882359
1525.96740723	2.82352948
1525.96740723	2.70588231
1525.97155762	2.68627453
1525.97558594	2.74509811
1525.97973633	2.84313726
1525.98376465	2.88235283
1525.98376465	2.98039222
1525.98791504	2.98039222
1525.99194336	2.88235283
1525.99609375	2.90196085
1525.99609375	2.74509811
1526.00012207	2.66666675
1526.00427246	2.76470590
1526.00830078	2.86274505
1526.01245117	2.66666675
1526.01245117	2.50980401
1526.01647949	2.37254906
1526.02062988	2.07843137
1526.02465820	1.90196073
1526.02465820	2.03921580
1526.02880859	2.33333325
1526.03283691	2.41176462
1526.03710938	2.41176462
1526.04113770	2.39215684
1526.04113770	2.43137264
1526.04553223	2.43137264
1526.04931641	2.45098042
1526.05346680	2.50980401
1526.05346680	2.52941179
1526.05749512	2.45098042
1526.06164551	2.50980401
1526.06579590	2.68627453
1526.06970215	2.25490189
1526.06970215	2.00000000
1526.07385254	1.90196073
1526.07788086	1.98039210
1526.08215332	1.94117641
1526.08215332	1.86274505
1526.08605957	2.13725495
1526.09020996	2.50980401
1526.09436035	2.70588231
1526.09851074	2.96078420
1526.10253906	3.03921580
1526.10656738	3.01960778
1526.11071777	2.96078420
1526.11071777	2.98039222
1526.11486816	3.00000000
1526.11901855	2.96078420
1526.12304688	2.88235283
1526.12707520	2.92156863
1526.13122559	3.05882359
1526.13525391	3.19607854
1526.13940430	3.23529410
1526.13940430	3.15686274
1526.14343262	3.00000000
1526.14770508	2.92156863
1526.15173340	2.86274505
1526.15588379	2.70588231
1526.15979004	2.62745094
1526.16394043	2.66666675
