23.25260735	2.56862736
23.25678444	2.74509811
23.26090622	2.78431368
23.26502609	2.62745094
23.26502609	2.49019599
23.26899910	2.39215684
23.27314377	2.49019599
23.27727318	2.68627453
23.28140259	2.64705873
23.28535080	2.50980401
23.28952026	2.43137264
23.29364014	2.47058821
23.29364014	2.64705873
23.29808044	2.76470590
23.30176735	2.68627453
23.30593681	2.50980401
23.31004906	2.39215684
23.31414604	2.52941179
23.31838036	2.72549009
23.32229614	2.70588231
23.32229614	2.54901958
23.32641602	2.39215684
23.33046341	2.37254906
23.33465004	2.49019599
23.33864784	2.70588231
23.34277725	2.52941179
23.34689713	2.37254906
23.35102654	2.27450991
23.35102654	2.35294127
23.35502243	2.54901958
23.35924149	2.66666675
23.36331367	2.54901958
23.36745071	2.25490189
23.37139893	2.29411769
23.37551880	2.47058821
23.37964821	2.60784316
23.37964821	2.58823538
23.38382721	2.43137264
23.38790512	2.31372547
23.39197731	2.31372547
23.39197731	2.43137264
23.39600754	2.60784316
23.40013695	2.60784316
23.40428162	2.45098042
23.40836143	2.27450991
23.40836143	2.25490189
23.41239929	2.35294127
23.41651344	2.54901958
23.42063332	2.64705873
23.42063332	2.49019599
23.42479515	2.33333325
23.42882538	2.25490189
23.43291283	2.31372547
23.43701744	2.50980401
23.43701744	2.62745094
23.44114494	2.58823538
23.44524193	2.41176462
23.44919777	2.31372547
23.44919777	2.31372547
23.45335960	2.47058821
23.45752144	2.62745094
23.46150208	2.62745094
23.46561623	2.45098042
23.46561623	2.29411769
23.46976089	2.27450991
23.47390556	2.43137264
23.47800255	2.58823538
23.47800255	2.64705873
23.48199844	2.49019599
23.48619461	2.33333325
23.49024963	2.25490189
23.49434471	2.35294127
23.49434471	2.54901958
23.49836731	2.66666675
23.50248718	2.54901958
23.50664139	2.37254906
23.50664139	2.25490189
23.51076889	2.33333325
23.51489067	2.50980401
23.51887131	2.64705873
23.52300835	2.60784316
23.52300835	2.41176462
23.52712059	2.29411769
23.53124237	2.29411769
23.53525543	2.45098042
23.53525543	2.60784316
23.53958130	2.62745094
23.54356194	2.47058821
23.54770660	2.33333325
23.55177879	2.29411769
23.55177879	2.39215684
23.55576897	2.60784316
23.56002045	2.66666675
23.56405067	2.56862736
23.56405067	2.39215684
23.56815529	2.31372547
23.57226753	2.39215684
23.57631302	2.56862736
23.58039284	2.70588231
23.58039284	2.62745094
23.58458710	2.45098042
23.58858490	2.37254906
23.59284592	2.37254906
23.59284592	2.54901958
23.59681892	2.68627453
23.60095596	2.70588231
23.60508347	2.54901958
23.60908127	2.41176462
23.60908127	2.37254906
23.61319351	2.49019599
23.61731529	2.68627453
23.62139511	2.74509811
23.62139511	2.60784316
23.62539291	2.47058821
23.62955284	2.39215684
23.63369942	2.49019599
23.63777924	2.78431368
23.64175987	2.68627453
23.64597893	2.50980401
23.65008354	2.43137264
23.65008354	2.45098042
23.65418625	2.62745094
23.65831566	2.76470590
23.66243553	2.72549009
23.66641808	2.43137264
23.67053795	2.43137264
23.67467499	2.56862736
23.67878723	2.74509811
23.67878723	2.74509811
23.68280983	2.58823538
23.68692207	2.45098042
23.69102669	2.39215684
23.69517899	2.70588231
23.69923401	2.78431368
23.70328903	2.66666675
23.70739365	2.50980401
23.70739365	2.43137264
23.71156311	2.49019599
23.71549606	2.68627453
23.71964836	2.82352948
23.72412300	2.56862736
23.72792244	2.49019599
23.73195457	2.50980401
23.73601723	2.68627453
23.73601723	2.84313726
23.74013710	2.86274505
23.74427414	2.68627453
23.74835396	2.58823538
23.75235939	2.70588231
23.75651360	2.88235283
23.76066589	2.94117641
23.76473045	2.78431368
23.76473045	2.62745094
23.76871872	2.56862736
23.77288818	2.64705873
23.77702522	2.84313726
23.77702522	2.94117641
23.78111458	2.84313726
23.78525925	2.64705873
23.78923225	2.56862736
23.79350853	2.60784316
23.79350853	2.78431368
23.79748917	2.90196085
23.80156136	2.88235283
23.80562401	2.68627453
23.80562401	2.56862736
23.80971146	2.54901958
23.81386566	2.70588231
23.81801033	2.84313726
23.82213974	2.86274505
23.82213974	2.66666675
23.82628441	2.50980401
23.83023262	2.45098042
23.83437729	2.54901958
23.83437729	2.70588231
23.83838463	2.78431368
23.84255409	2.64705873
23.84671593	2.47058821
23.85083580	2.39215684
23.85083580	2.41176462
23.85495567	2.60784316
23.85893059	2.72549009
23.86305809	2.64705873
23.86305809	2.47058821
23.86720276	2.33333325
23.87127495	2.35294127
23.87527275	2.52941179
23.87939262	2.68627453
23.87939262	2.66666675
23.88355446	2.49019599
23.88765907	2.35294127
23.89174652	2.33333325
23.89174652	2.47058821
23.89577675	2.66666675
23.89987373	2.70588231
23.90401840	2.54901958
23.90806580	2.39215684
23.90806580	2.31372547
23.91230011	2.39215684
23.91626549	2.58823538
23.92038536	2.68627453
23.92038536	2.56862736
23.92481804	2.39215684
23.92855263	2.27450991
23.93270683	2.31372547
23.93677902	2.49019599
23.93677902	2.64705873
23.94089127	2.60784316
23.94489670	2.41176462
23.94907379	2.29411769
23.94907379	2.29411769
23.95313835	2.47058821
23.95725822	2.62745094
23.96144485	2.64705873
23.96551514	2.47058821
23.96551514	2.29411769
23.96951294	2.25490189
23.97362518	2.37254906
23.97773743	2.54901958
23.97773743	2.62745094
23.98177719	2.49019599
23.98586464	2.31372547
23.99000168	2.21568632
23.99416351	2.27450991
23.99416351	2.47058821
23.99830818	2.58823538
24.00233078	2.49019599
24.00641060	2.29411769
24.00641060	2.19607854
24.01052284	2.21568632
24.01468468	2.37254906
24.01865768	2.50980401
24.02276230	2.33333325
24.02683258	2.19607854
24.03104401	2.17647052
24.03513145	2.31372547
24.03513145	2.47058821
24.03926086	2.52941179
24.04325867	2.37254906
24.04745293	2.23529410
24.05158043	2.23529410
24.05555344	2.43137264
24.05965042	2.54901958
24.06381226	2.45098042
24.06381226	2.29411769
24.06794930	2.19607854
24.07189751	2.23529410
24.07604218	2.43137264
24.08013916	2.54901958
24.08430862	2.37254906
24.08842087	2.25490189
24.09240150	2.25490189
24.09240150	2.41176462
24.09651375	2.58823538
24.10067558	2.62745094
24.10483742	2.45098042
24.10879326	2.25490189
24.11293030	2.37254906
24.11705971	2.58823538
24.12119675	2.66666675
24.12119675	2.52941179
24.12534904	2.35294127
24.12927437	2.27450991
24.13345146	2.33333325
24.13753128	2.66666675
24.14159393	2.58823538
24.14564896	2.39215684
24.14980316	2.27450991
24.14980316	2.29411769
24.15388298	2.49019599
24.15802002	2.66666675
24.16218948	2.66666675
24.16218948	2.47058821
24.16626167	2.35294127
24.17024994	2.33333325
24.17437172	2.47058821
24.17866325	2.66666675
24.17866325	2.72549009
24.18248177	2.56862736
24.18655968	2.43137264
24.19073105	2.37254906
24.19073105	2.47058821
24.19485855	2.66666675
24.19885635	2.78431368
24.20301819	2.68627453
24.20713043	2.49019599
24.20713043	2.41176462
24.21127510	2.45098042
24.21520805	2.66666675
24.21936035	2.80392146
24.21936035	2.76470590
24.22351456	2.56862736
24.22767639	2.45098042
24.23179626	2.45098042
24.23581886	2.62745094
24.23581886	2.80392146
24.23994827	2.80392146
24.24405289	2.64705873
24.24818802	2.49019599
24.24818802	2.47058821
24.25230217	2.58823538
24.25625801	2.76470590
24.26038742	2.84313726
24.26455688	2.68627453
24.26455688	2.52941179
24.26856232	2.45098042
24.27264214	2.52941179
24.27679634	2.72549009
24.27679634	2.84313726
24.28093147	2.76470590
24.28504562	2.56862736
24.28905106	2.45098042
24.29332733	2.47058821
24.29332733	2.64705873
24.29731560	2.80392146
24.30142021	2.78431368
24.30554962	2.58823538
24.30554962	2.47058821
24.30949783	2.43137264
24.31376648	2.56862736
24.31777191	2.74509811
24.32187653	2.78431368
24.32187653	2.64705873
24.32579231	2.49019599
24.32996941	2.43137264
24.33406639	2.52941179
24.33406639	2.74509811
24.33816147	2.84313726
24.34226608	2.72549009
24.34641838	2.54901958
24.35049820	2.45098042
24.35049820	2.49019599
24.35461044	2.70588231
24.35886192	2.84313726
24.36273003	2.80392146
24.36273003	2.60784316
24.36683273	2.49019599
24.37106133	2.49019599
24.37509155	2.66666675
24.37927818	2.82352948
24.37927818	2.86274505
24.38320923	2.66666675
24.38732147	2.50980401
24.39147568	2.47058821
24.39147568	2.56862736
24.39552116	2.76470590
24.39964294	2.82352948
24.40370560	2.66666675
24.40784264	2.43137264
24.41189003	2.47058821
24.41596985	2.66666675
24.42020416	2.80392146
24.42020416	2.72549009
24.42420197	2.52941179
24.42833138	2.43137264
24.43234444	2.43137264
24.43642426	2.76470590
24.44057846	2.72549009
24.44469070	2.54901958
24.44881058	2.41176462
24.44881058	2.37254906
24.45278358	2.49019599
24.45692062	2.66666675
24.46109009	2.70588231
24.46516991	2.37254906
24.46916008	2.31372547
24.47328949	2.41176462
24.47744179	2.60784316
24.47744179	2.70588231
24.48153877	2.58823538
24.48554420	2.39215684
24.48966408	2.27450991
24.49381828	2.47058821
24.49796295	2.58823538
24.50198555	2.54901958
24.50620461	2.37254906
24.50620461	2.23529410
24.51026726	2.23529410
24.51430511	2.37254906
24.51850891	2.54901958
24.51850891	2.58823538
24.52245712	2.39215684
24.52655220	2.23529410
24.53070641	2.17647052
24.53485107	2.29411769
24.53485107	2.49019599
24.53884125	2.56862736
24.54299355	2.45098042
24.54711533	2.29411769
24.54711533	2.21568632
24.55122757	2.31372547
24.55522537	2.50980401
24.55933762	2.62745094
24.56346703	2.56862736
24.56346703	2.37254906
24.56761932	2.27450991
24.57180595	2.27450991
24.57577896	2.47058821
24.57577896	2.62745094
24.57988358	2.60784316
24.58400345	2.43137264
24.58819771	2.31372547
24.59226990	2.27450991
24.59226990	2.45098042
24.59617615	2.64705873
24.60036278	2.70588231
24.60450745	2.54901958
24.60450745	2.37254906
24.60845757	2.31372547
24.61259460	2.41176462
24.61673927	2.62745094
24.62085915	2.72549009
24.62085915	2.60784316
24.62493134	2.43137264
24.62900162	2.33333325
24.63330269	2.37254906
24.63330269	2.58823538
24.63727570	2.72549009
24.64132309	2.68627453
24.64540291	2.49019599
24.64941597	2.35294127
24.64941597	2.35294127
24.65359497	2.50980401
24.65775681	2.70588231
24.66191864	2.70588231
24.66191864	2.50980401
24.66585732	2.37254906
24.67000389	2.33333325
24.67414093	2.45098042
24.67828560	2.64705873
24.67828560	2.74509811
24.68221664	2.56862736
24.68635368	2.41176462
24.69048309	2.35294127
24.69048309	2.43137264
24.69459534	2.62745094
24.69861031	2.76470590
24.70273781	2.68627453
24.70685959	2.49019599
24.70685959	2.39215684
24.71102905	2.41176462
24.71511650	2.60784316
24.71925354	2.76470590
24.71925354	2.74509811
24.72325897	2.58823538
24.72737122	2.45098042
24.73150826	2.43137264
24.73561287	2.56862736
24.73561287	2.76470590
24.73962784	2.82352948
24.74378777	2.68627453
24.74792480	2.50980401
24.74792480	2.45098042
24.75204659	2.54901958
24.75600243	2.76470590
24.76013184	2.86274505
24.76425171	2.74509811
24.76425171	2.52941179
24.76830673	2.45098042
24.77233696	2.49019599
24.77646637	2.68627453
24.77646637	2.82352948
24.78057861	2.76470590
24.78476524	2.56862736
24.78889275	2.43137264
24.79287529	2.58823538
24.79698753	2.76470590
24.80113220	2.78431368
24.80525398	2.58823538
24.80525398	2.43137264
24.80922699	2.39215684
24.81328964	2.52941179
24.81750870	2.70588231
24.82157135	2.60784316
24.82564354	2.45098042
24.82964134	2.37254906
24.83384323	2.45098042
24.83384323	2.62745094
24.83792305	2.76470590
24.84212494	2.68627453
24.84622955	2.50980401
24.85023499	2.45098042
24.85428238	2.64705873
24.85851669	2.80392146
24.86244202	2.78431368
24.86244202	2.58823538
24.86656189	2.45098042
24.87069893	2.43137264
24.87490082	2.56862736
24.87883377	2.80392146
24.88302040	2.62745094
24.88713264	2.47058821
24.89128494	2.41176462
24.89128494	2.49019599
24.89539719	2.68627453
24.89935493	2.78431368
24.90349960	2.64705873
24.90764427	2.37254906
24.91188049	2.39215684
24.91577911	2.56862736
24.91991615	2.70588231
24.91991615	2.66666675
24.92405319	2.49019599
24.92820740	2.35294127
24.93226242	2.35294127
24.93226242	2.52941179
24.93628502	2.70588231
24.94041252	2.72549009
24.94451714	2.54901958
24.94867897	2.39215684
24.94867897	2.35294127
24.95266724	2.47058821
24.95676422	2.66666675
24.96090126	2.76470590
24.96090126	2.60784316
24.96499634	2.45098042
24.96903610	2.39215684
24.97332764	2.45098042
24.97729301	2.64705873
24.97729301	2.78431368
24.98144722	2.70588231
24.98542023	2.50980401
24.98956490	2.39215684
24.98956490	2.41176462
24.99364471	2.62745094
24.99777412	2.76470590
25.00192642	2.74509811
25.00587463	2.52941179
25.00587463	2.43137264
25.01002121	2.41176462
25.01412392	2.54901958
25.01829338	2.72549009
25.01829338	2.78431368
25.02227592	2.60784316
25.02640343	2.45098042
25.03050041	2.41176462
25.03466225	2.50980401
25.03466225	2.68627453
25.03881454	2.78431368
25.04282951	2.66666675
25.04690933	2.49019599
25.04690933	2.39215684
25.05102921	2.45098042
25.05519104	2.64705873
25.05926323	2.80392146
25.06329346	2.70588231
25.06329346	2.54901958
25.06738091	2.43137264
25.07155800	2.43137264
25.07566261	2.58823538
25.07566261	2.76470590
25.07963562	2.74509811
25.08374786	2.56862736
25.08794212	2.43137264
25.09199715	2.41176462
25.09199715	2.52941179
25.09600449	2.72549009
25.10011673	2.80392146
25.10423660	2.64705873
25.10423660	2.47058821
25.10834122	2.43137264
25.11241150	2.49019599
25.11647606	2.68627453
25.12062836	2.78431368
25.12062836	2.70588231
25.12468338	2.50980401
25.12882042	2.41176462
25.13288307	2.43137264
25.13288307	2.60784316
25.13702011	2.78431368
25.14112473	2.74509811
25.14525414	2.54901958
25.14929199	2.41176462
25.14929199	2.37254906
25.15340424	2.54901958
25.15750122	2.72549009
25.16164589	2.76470590
25.16164589	2.60784316
25.16559410	2.47058821
25.16974831	2.39215684
25.17386055	2.50980401
25.17803001	2.80392146
25.18199539	2.70588231
25.18624687	2.50980401
25.19024467	2.41176462
25.19024467	2.47058821
25.19438171	2.68627453
25.19852638	2.80392146
25.20253181	2.76470590
25.20664406	2.45098042
25.21074867	2.43137264
25.21487808	2.58823538
25.21903992	2.78431368
25.21903992	2.78431368
25.22302055	2.60784316
25.22715759	2.47058821
25.23125267	2.41176462
25.23540688	2.70588231
25.23941231	2.76470590
25.24353409	2.60784316
25.24765396	2.43137264
25.24765396	2.31372547
25.25181580	2.37254906
25.25580406	2.56862736
25.25989342	2.68627453
25.26404572	2.39215684
25.26816750	2.29411769
25.27231216	2.31372547
25.27626038	2.50980401
25.27626038	2.64705873
25.28037262	2.62745094
25.28449249	2.45098042
25.28868675	2.29411769
25.29265213	2.43137264
25.29674911	2.60784316
25.30087662	2.62745094
25.30503845	2.47058821
25.30503845	2.29411769
25.30906105	2.23529410
25.31328011	2.33333325
25.31729317	2.52941179
25.31729317	2.64705873
25.32143974	2.50980401
25.32542038	2.35294127
25.32952499	2.23529410
25.33366966	2.29411769
25.33366966	2.49019599
25.33777428	2.64705873
25.34187889	2.58823538
25.34596634	2.39215684
25.34596634	2.27450991
25.35008621	2.29411769
25.35414124	2.47058821
25.35827827	2.62745094
25.36240005	2.62745094
25.36240005	2.43137264
25.36640549	2.31372547
25.37040329	2.27450991
25.37463760	2.41176462
25.37463760	2.58823538
25.37879181	2.66666675
25.38270760	2.50980401
25.38684464	2.35294127
25.39092445	2.29411769
25.39092445	2.35294127
25.39512634	2.54901958
25.39917374	2.68627453
25.40324402	2.60784316
25.40324402	2.41176462
25.40737343	2.33333325
25.41151810	2.37254906
25.41547585	2.54901958
25.41960335	2.70588231
25.41960335	2.68627453
25.42373276	2.49019599
25.42788696	2.37254906
25.43207169	2.35294127
25.43207169	2.50980401
25.43605423	2.68627453
25.44031334	2.74509811
25.44449043	2.56862736
25.44838333	2.39215684
25.44838333	2.35294127
25.45241356	2.45098042
25.45652580	2.64705873
25.46062088	2.76470590
25.46062088	2.64705873
25.46474266	2.47058821
25.46892738	2.37254906
25.47286797	2.43137264
25.47702217	2.64705873
25.47702217	2.78431368
25.48117447	2.72549009
25.48518944	2.52941179
25.48937607	2.41176462
25.48937607	2.41176462
25.49338150	2.56862736
25.49756813	2.74509811
25.50162315	2.76470590
25.50575066	2.56862736
25.50575066	2.43137264
25.50974083	2.37254906
25.51398468	2.50980401
25.51800537	2.68627453
25.51800537	2.78431368
25.52218437	2.62745094
25.52626419	2.47058821
25.53024483	2.39215684
25.53442383	2.47058821
25.53442383	2.66666675
25.53852654	2.80392146
25.54249954	2.70588231
25.54656410	2.50980401
25.54656410	2.41176462
25.55074883	2.43137264
25.55487823	2.62745094
25.55898285	2.76470590
25.56298065	2.56862736
25.56719971	2.43137264
25.57122231	2.39215684
25.57527733	2.54901958
25.57527733	2.72549009
25.57939720	2.78431368
25.58341980	2.60784316
25.58761406	2.45098042
25.59175110	2.49019599
25.59574890	2.68627453
25.59984398	2.78431368
25.60398865	2.66666675
25.60398865	2.45098042
25.60806847	2.37254906
25.61225510	2.41176462
25.61628532	2.60784316
25.62042236	2.68627453
25.62454414	2.47058821
25.62868881	2.37254906
25.63277626	2.37254906
25.63277626	2.52941179
25.63679886	2.68627453
25.64086914	2.68627453
25.64494896	2.52941179
25.64899635	2.33333325
25.65330505	2.43137264
25.65725327	2.62745094
25.66139030	2.70588231
25.66139030	2.56862736
25.66553688	2.37254906
25.66943550	2.31372547
25.67359734	2.39215684
25.67777443	2.72549009
25.68187141	2.62745094
25.68583488	2.45098042
25.68997192	2.35294127
25.68997192	2.35294127
25.69413376	2.54901958
25.69846725	2.72549009
25.70239258	2.68627453
25.70239258	2.49019599
25.70642281	2.35294127
25.71051025	2.35294127
25.71461487	2.50980401
25.71887398	2.68627453
25.71887398	2.72549009
25.72276497	2.54901958
25.72688675	2.41176462
25.73092461	2.35294127
25.73092461	2.45098042
25.73510170	2.64705873
25.73924828	2.76470590
25.74325371	2.60784316
25.74734116	2.43137264
25.74734116	2.33333325
25.75154305	2.39215684
25.75568008	2.58823538
25.75963020	2.70588231
25.75963020	2.64705873
25.76379013	2.45098042
25.76807594	2.31372547
25.77200699	2.33333325
25.77618599	2.49019599
25.77618599	2.66666675
25.78027344	2.68627453
25.78424644	2.49019599
25.78842354	2.33333325
25.78842354	2.29411769
25.79243088	2.43137264
25.79649353	2.60784316
25.80061340	2.68627453
25.80477524	2.52941179
25.80477524	2.35294127
25.80902672	2.29411769
25.81292725	2.37254906
25.81701469	2.60784316
25.81701469	2.72549009
25.82113457	2.62745094
25.82528877	2.45098042
25.82931900	2.35294127
25.83339882	2.39215684
25.83339882	2.56862736
25.83755112	2.72549009
25.84169769	2.68627453
25.84575272	2.47058821
25.84575272	2.35294127
25.84974098	2.29411769
25.85393524	2.45098042
25.85800743	2.64705873
25.86213493	2.70588231
25.86213493	2.54901958
25.86628151	2.39215684
25.87023735	2.35294127
25.87441635	2.45098042
25.87441635	2.64705873
25.87859344	2.74509811
25.88255119	2.60784316
25.88664627	2.45098042
25.89078331	2.37254906
25.89078331	2.43137264
25.89490318	2.62745094
25.89896774	2.76470590
25.90300560	2.72549009
25.90300560	2.50980401
25.90728188	2.39215684
25.91127968	2.39215684
25.91529465	2.56862736
25.91935730	2.72549009
25.91935730	2.70588231
25.92350197	2.52941179
25.92763901	2.39215684
25.93169403	2.35294127
25.93169403	2.49019599
25.93572426	2.68627453
25.93984604	2.76470590
25.94399071	2.60784316
25.94816780	2.35294127
25.95229721	2.43137264
25.95626259	2.62745094
25.96036530	2.74509811
25.96036530	2.64705873
25.96448708	2.47058821
25.96859169	2.37254906
25.97253036	2.39215684
25.97673416	2.74509811
25.98084641	2.72549009
25.98499870	2.52941179
25.98912048	2.39215684
25.98912048	2.37254906
25.99324036	2.52941179
25.99723816	2.70588231
26.00133514	2.72549009
26.00548744	2.39215684
26.00946045	2.35294127
26.01358986	2.45098042
26.01772690	2.62745094
26.01772690	2.72549009
26.02178955	2.60784316
26.02585220	2.43137264
26.02990723	2.35294127
26.03413582	2.56862736
26.03824806	2.70588231
26.04221153	2.64705873
26.04644012	2.45098042
26.04644012	2.33333325
26.05044556	2.35294127
26.05466461	2.52941179
26.05878448	2.68627453
26.06280708	2.50980401
26.06690216	2.39215684
26.07102394	2.33333325
26.07516098	2.47058821
26.07516098	2.66666675
26.07924080	2.72549009
26.08327103	2.56862736
26.08736610	2.41176462
26.08736610	2.33333325
26.09154510	2.39215684
26.09564972	2.60784316
26.09961319	2.72549009
26.10379982	2.60784316
26.10379982	2.43137264
26.10785484	2.33333325
26.11209106	2.35294127
26.11617851	2.54901958
26.11617851	2.70588231
26.12030602	2.66666675
26.12428856	2.45098042
26.12844086	2.31372547
26.13252831	2.33333325
26.13252831	2.47058821
26.13652611	2.66666675
26.14061546	2.72549009
26.14469337	2.54901958
26.14469337	2.35294127
26.14886475	2.33333325
26.15290260	2.41176462
26.15704727	2.62745094
26.16114426	2.70588231
26.16114426	2.58823538
26.16523933	2.39215684
26.16928673	2.33333325
26.17341614	2.37254906
26.17341614	2.56862736
26.17756844	2.72549009
26.18166542	2.66666675
26.18580246	2.47058821
26.18980789	2.37254906
26.18980789	2.37254906
26.19387817	2.54901958
26.19803238	2.72549009
26.20214462	2.74509811
26.20214462	2.56862736
26.20627403	2.41176462
26.21026230	2.39215684
26.21435928	2.52941179
26.21848869	2.72549009
26.21848869	2.78431368
26.22255135	2.60784316
26.22665596	2.45098042
26.23085022	2.39215684
26.23085022	2.47058821
26.23493004	2.66666675
26.23897552	2.76470590
26.24303055	2.68627453
26.24728203	2.49019599
26.24728203	2.39215684
26.25127983	2.39215684
26.25540161	2.58823538
26.25950432	2.74509811
26.25950432	2.70588231
26.26352692	2.50980401
26.26764870	2.39215684
26.27171898	2.37254906
26.27580643	2.50980401
26.27580643	2.68627453
26.27985382	2.70588231
26.28394127	2.56862736
26.28807831	2.41176462
26.28807831	2.37254906
26.29224777	2.47058821
26.29619789	2.66666675
26.30028534	2.76470590
26.30438995	2.62745094
26.30438995	2.45098042
26.30853462	2.35294127
26.31257248	2.43137264
26.31666946	2.62745094
26.31666946	2.74509811
26.32078171	2.66666675
26.32490921	2.47058821
26.32903099	2.39215684
26.33320808	2.60784316
26.33723831	2.76470590
26.34127045	2.76470590
26.34543991	2.56862736
26.34543991	2.45098042
26.34946060	2.39215684
26.35363197	2.52941179
26.35772705	2.72549009
26.36188889	2.60784316
26.36598396	2.45098042
26.36999893	2.37254906
26.37424278	2.47058821
26.37424278	2.64705873
26.37824821	2.76470590
26.38236809	2.64705873
26.38640785	2.45098042
26.39053535	2.39215684
26.39465714	2.56862736
26.39878464	2.72549009
26.40288925	2.68627453
26.40288925	2.49019599
26.40691948	2.37254906
26.41100883	2.35294127
26.41511154	2.50980401
26.41924095	2.72549009
26.42329597	2.54901958
26.42740059	2.41176462
26.43148804	2.35294127
26.43148804	2.43137264
26.43567467	2.64705873
26.43965530	2.72549009
26.44376755	2.62745094
26.44376755	2.43137264
26.44792938	2.33333325
26.45204926	2.39215684
26.45604706	2.58823538
26.46025085	2.72549009
26.46025085	2.64705873
26.46428108	2.45098042
26.46842575	2.33333325
26.47249794	2.33333325
26.47249794	2.50980401
26.47653580	2.68627453
26.48062325	2.68627453
26.48470306	2.50980401
26.48885727	2.37254906
26.48885727	2.33333325
26.49291992	2.47058821
26.49698257	2.68627453
26.50123405	2.74509811
26.50123405	2.58823538
26.50528145	2.43137264
26.50941849	2.35294127
26.51339912	2.43137264
26.51754570	2.64705873
26.51754570	2.74509811
26.52167320	2.62745094
26.52577019	2.43137264
26.52980042	2.33333325
26.52980042	2.37254906
26.53391266	2.56862736
26.53804207	2.74509811
26.54211235	2.68627453
26.54623413	2.49019599
26.54623413	2.37254906
26.55023956	2.35294127
26.55442619	2.50980401
26.55845642	2.70588231
26.55845642	2.72549009
26.56261826	2.56862736
26.56663895	2.43137264
26.57069397	2.37254906
26.57482338	2.47058821
26.57482338	2.66666675
26.57901764	2.76470590
26.58297539	2.60784316
26.58720207	2.45098042
26.58720207	2.35294127
26.59123993	2.43137264
26.59531975	2.62745094
26.59934998	2.76470590
26.60342216	2.70588231
26.60342216	2.50980401
26.60761642	2.43137264
26.61176872	2.43137264
26.61587334	2.60784316
26.61587334	2.74509811
26.61983871	2.74509811
26.62397575	2.54901958
26.62812805	2.43137264
26.63266754	2.39215684
26.63266754	2.52941179
26.63623047	2.70588231
26.64034271	2.78431368
26.64454460	2.62745094
26.64454460	2.45098042
26.64868164	2.39215684
26.65264702	2.47058821
26.65675163	2.66666675
26.66087151	2.78431368
26.66087151	2.66666675
26.66498375	2.47058821
26.66914558	2.39215684
26.67325020	2.41176462
26.67325020	2.58823538
26.67725563	2.74509811
26.68135262	2.70588231
26.68553925	2.50980401
26.68955231	2.35294127
26.69361496	2.50980401
26.69773674	2.68627453
26.70182419	2.72549009
26.70182419	2.52941179
26.70598602	2.37254906
26.70996666	2.33333325
26.71423531	2.43137264
26.71827316	2.72549009
26.72240257	2.58823538
26.72639275	2.41176462
26.73048019	2.31372547
26.73048019	2.35294127
26.73460770	2.56862736
26.73876953	2.68627453
26.74290657	2.60784316
26.74686432	2.31372547
26.75095177	2.31372547
26.75510406	2.49019599
26.75923347	2.68627453
26.75923347	2.68627453
26.76320648	2.50980401
26.76736069	2.37254906
26.77144051	2.33333325
26.77560043	2.66666675
26.77955055	2.72549009
26.78372002	2.56862736
26.78777504	2.41176462
26.78777504	2.35294127
26.79200172	2.45098042
26.79612160	2.64705873
26.80022621	2.76470590
26.80419159	2.47058821
26.80830383	2.37254906
26.81249046	2.41176462
26.81655312	2.60784316
26.81655312	2.74509811
26.82062531	2.72549009
26.82481003	2.52941179
26.82890701	2.41176462
26.82890701	2.41176462
26.83313370	2.56862736
26.83698463	2.72549009
26.84114456	2.74509811
26.84523392	2.56862736
26.84523392	2.41176462
26.84935379	2.35294127
26.85337639	2.45098042
26.85750389	2.64705873
26.85750389	2.74509811
26.86163330	2.58823538
26.86573029	2.41176462
26.86976814	2.31372547
26.87379074	2.39215684
26.87379074	2.56862736
26.87800980	2.72549009
26.88210487	2.64705873
26.88623428	2.45098042
26.88623428	2.35294127
26.89019966	2.33333325
26.89436913	2.50980401
26.89848137	2.68627453
26.90263367	2.68627453
26.90263367	2.50980401
26.90664101	2.37254906
26.91074371	2.35294127
26.91487312	2.49019599
26.91487312	2.68627453
26.91897774	2.76470590
26.92302513	2.60784316
26.92727661	2.45098042
26.93123245	2.37254906
26.93123245	2.47058821
26.93535423	2.66666675
26.93935013	2.76470590
26.94348717	2.66666675
26.94348717	2.49019599
26.94760132	2.37254906
26.95171356	2.41176462
26.95591545	2.58823538
26.95987129	2.72549009
26.95987129	2.70588231
26.96404266	2.49019599
26.96814537	2.37254906
26.97225761	2.35294127
26.97225761	2.52941179
26.97626495	2.68627453
26.98037720	2.72549009
26.98447990	2.52941179
26.98860168	2.37254906
26.98860168	2.33333325
26.99277115	2.43137264
26.99675179	2.62745094
27.00085640	2.72549009
27.00085640	2.60784316
27.00497627	2.43137264
27.00925255	2.33333325
27.01330757	2.39215684
27.01726532	2.58823538
27.01726532	2.74509811
27.02139473	2.64705873
27.02553177	2.47058821
27.02968407	2.35294127
27.02968407	2.35294127
27.03382111	2.52941179
27.03776932	2.70588231
27.04189110	2.70588231
27.04597855	2.50980401
27.04597855	2.37254906
27.04997635	2.33333325
27.05414581	2.45098042
27.05825806	2.66666675
27.05825806	2.72549009
27.06237793	2.58823538
27.06635094	2.41176462
27.07052040	2.37254906
27.07470703	2.66666675
27.07883644	2.78431368
27.08279228	2.68627453
27.08708572	2.49019599
27.08708572	2.41176462
27.09099388	2.43137264
27.09516335	2.62745094
27.09923363	2.80392146
27.10314178	2.58823538
27.10732841	2.45098042
27.11142349	2.45098042
27.11557770	2.60784316
27.11557770	2.78431368
27.11957550	2.82352948
27.12372017	2.62745094
27.12788200	2.49019599
27.13196945	2.54901958
27.13592720	2.72549009
27.14022636	2.82352948
27.14420891	2.64705873
27.14420891	2.47058821
27.14832878	2.39215684
27.15246582	2.47058821
27.15639877	2.64705873
27.16060829	2.72549009
27.16466331	2.52941179
27.16882515	2.43137264
27.17297935	2.43137264
27.17297935	2.62745094
27.17696762	2.78431368
27.18107986	2.76470590
27.18521690	2.58823538
27.18934631	2.41176462
27.19332695	2.54901958
27.19747353	2.74509811
27.20158577	2.80392146
27.20158577	2.62745094
27.20578766	2.47058821
27.20977783	2.39215684
27.21390533	2.47058821
27.21390533	2.68627453
27.21808434	2.78431368
27.22214699	2.66666675
27.22626686	2.50980401
27.23023987	2.41176462
27.23023987	2.43137264
27.23435402	2.62745094
27.23847389	2.76470590
27.24266052	2.74509811
27.24266052	2.56862736
27.24659157	2.43137264
27.25072098	2.41176462
27.25489044	2.56862736
27.25900269	2.74509811
27.25900269	2.80392146
27.26297569	2.60784316
27.26721954	2.47058821
27.27134895	2.41176462
27.27134895	2.52941179
27.27532959	2.72549009
27.27930260	2.80392146
27.28346443	2.66666675
27.28755188	2.49019599
27.28755188	2.37254906
27.29173851	2.43137264
27.29586601	2.64705873
27.29997063	2.76470590
27.29997063	2.68627453
27.30397606	2.50980401
27.30805588	2.39215684
27.31224251	2.39215684
27.31635475	2.54901958
27.31635475	2.72549009
27.32040977	2.68627453
27.32453918	2.50980401
27.32865143	2.37254906
27.32865143	2.33333325
27.33278847	2.47058821
27.33681870	2.66666675
27.34093094	2.72549009
27.34501839	2.54901958
27.34501839	2.39215684
27.34913063	2.33333325
27.35321999	2.41176462
27.35728264	2.62745094
27.35728264	2.74509811
27.36137772	2.62745094
27.36546516	2.45098042
27.36961937	2.35294127
27.37355232	2.37254906
27.37355232	2.56862736
27.37773705	2.72549009
27.38184929	2.66666675
27.38597107	2.47058821
27.38597107	2.35294127
27.38993645	2.33333325
27.39423561	2.50980401
27.39820099	2.68627453
27.40235519	2.72549009
27.40235519	2.52941179
27.40638542	2.41176462
27.41053009	2.39215684
27.41460228	2.47058821
27.41460228	2.64705873
27.41872215	2.74509811
27.42285156	2.58823538
27.42690659	2.41176462
27.43096924	2.39215684
27.43501663	2.58823538
27.43919373	2.72549009
27.44335556	2.64705873
27.44335556	2.45098042
27.44734573	2.33333325
27.45144081	2.35294127
27.45559502	2.52941179
27.45969963	2.66666675
27.46368790	2.49019599
27.46783257	2.35294127
27.47218323	2.33333325
27.47218323	2.47058821
27.47613144	2.68627453
27.48026085	2.74509811
27.48423386	2.60784316
27.48834610	2.39215684
27.49247551	2.47058821
27.49651337	2.68627453
27.50059319	2.80392146
27.50059319	2.70588231
27.50465584	2.52941179
27.50886726	2.41176462
27.51298714	2.45098042
27.51695251	2.78431368
27.52111435	2.74509811
27.52519417	2.54901958
27.52937126	2.41176462
27.52937126	2.41176462
27.53334427	2.56862736
27.53749084	2.74509811
27.54171753	2.76470590
27.54573059	2.43137264
27.54972076	2.37254906
27.55385017	2.49019599
27.55795288	2.68627453
27.55795288	2.76470590
27.56204224	2.64705873
27.56619453	2.45098042
27.57023239	2.37254906
27.57023239	2.43137264
27.57432175	2.62745094
27.57849121	2.74509811
27.58257103	2.68627453
27.58671570	2.49019599
27.58671570	2.37254906
27.59077072	2.39215684
27.59492493	2.58823538
27.59902000	2.76470590
27.59902000	2.74509811
27.60313225	2.56862736
27.60725212	2.41176462
27.61126709	2.39215684
27.61536217	2.54901958
27.61536217	2.72549009
27.61949158	2.78431368
27.62346458	2.62745094
27.62765121	2.47058821
27.62765121	2.41176462
27.63171387	2.49019599
27.63584328	2.70588231
27.63989830	2.82352948
27.64409256	2.70588231
27.64409256	2.50980401
27.64814758	2.39215684
27.65229225	2.43137264
27.65642166	2.60784316
27.65642166	2.74509811
27.66035271	2.70588231
27.66453171	2.49019599
27.66864395	2.39215684
27.67292786	2.37254906
27.67292786	2.52941179
27.67675400	2.70588231
27.68088341	2.74509811
27.68498611	2.56862736
27.68498611	2.41176462
27.68909073	2.35294127
27.69324493	2.49019599
27.69724274	2.68627453
27.70134544	2.76470590
27.70134544	2.62745094
27.70539284	2.45098042
27.70959473	2.35294127
27.71352768	2.45098042
27.71352768	2.68627453
27.71771431	2.76470590
27.72182655	2.66666675
27.72593880	2.47058821
27.73006821	2.35294127
27.73006821	2.35294127
27.73420525	2.52941179
27.73824310	2.72549009
27.74239731	2.72549009
27.74239731	2.52941179
27.74636078	2.31372547
27.75049019	2.25490189
27.75459480	2.35294127
27.75877190	2.50980401
27.75877190	2.54901958
27.76284409	2.33333325
27.76684189	2.07843137
27.77101135	1.86274505
27.77101135	1.84313726
27.77508163	1.96078432
27.77924347	2.01960778
27.78321648	1.88235295
27.78732109	1.68627453
27.78732109	1.52941179
27.79145813	1.54901958
27.79558754	1.72549021
27.79964256	1.88235295
27.79964256	1.84313726
27.80373764	1.68627453
27.80776787	1.58823526
27.81196213	1.62745094
27.81610870	2.01960778
27.82022095	2.07843137
27.82418442	1.94117641
27.82837105	1.84313726
27.82837105	1.86274505
27.83248329	2.00000000
27.83665276	2.25490189
27.84061813	2.39215684
27.84477997	2.17647052
27.84890938	2.15686274
27.85299683	2.29411769
27.85700989	2.54901958
27.85700989	2.74509811
27.86111450	2.70588231
27.86521912	2.56862736
27.86933899	2.50980401
27.87341881	2.82352948
27.87749863	3.00000000
27.88158607	3.00000000
27.88575554	2.86274505
27.88575554	2.74509811
27.88972092	2.74509811
27.89385033	2.92156863
27.89796257	3.13725495
27.90207481	3.01960778
27.90617180	2.88235283
27.91020203	2.82352948
27.91431427	2.90196085
27.91431427	3.11764717
27.91845131	3.21568632
27.92262077	3.09803915
27.92676544	2.90196085
27.93073845	2.82352948
27.93492508	3.00000000
27.93896294	3.13725495
27.94314957	3.09803915
27.94314957	2.90196085
27.94722939	2.76470590
27.95113754	2.74509811
27.95531464	2.90196085
27.95531464	3.05882359
27.95947647	3.07843137
27.96344948	2.88235283
27.96757889	2.70588231
27.97169876	2.66666675
27.97169876	2.76470590
27.97586060	2.94117641
27.97989845	3.00000000
27.98398590	2.88235283
27.98398590	2.70588231
27.98809814	2.62745094
27.99221992	2.70588231
27.99627495	2.90196085
28.00035477	3.00000000
28.00035477	2.92156863
28.00440025	2.72549009
28.00860405	2.62745094
28.01272392	2.62745094
28.01272392	2.82352948
28.01672173	2.96078420
28.02085876	2.92156863
28.02493095	2.72549009
28.02910042	2.58823538
28.02910042	2.54901958
28.03322029	2.70588231
28.03724289	2.86274505
28.04141998	2.90196085
28.04141998	2.74509811
28.04549217	2.56862736
28.04958916	2.50980401
28.05359459	2.60784316
28.05776405	2.80392146
28.05776405	2.90196085
28.06189346	2.76470590
28.06596375	2.58823538
28.07009315	2.49019599
28.07009315	2.52941179
28.07420540	2.72549009
28.07825279	2.86274505
28.08235550	2.78431368
28.08646011	2.58823538
28.08646011	2.47058821
28.09045792	2.49019599
28.09461212	2.64705873
28.09870720	2.82352948
28.09870720	2.82352948
28.10285187	2.62745094
28.10688400	2.49019599
28.11102867	2.45098042
28.11510849	2.56862736
28.11510849	2.76470590
28.11921120	2.82352948
28.12321854	2.68627453
28.12740326	2.52941179
28.12740326	2.43137264
28.13145828	2.50980401
28.13560486	2.70588231
28.13969231	2.82352948
28.14373016	2.72549009
28.14373016	2.54901958
28.14784241	2.43137264
28.15197945	2.45098042
28.15610123	2.62745094
28.15610123	2.78431368
28.16022873	2.76470590
28.16428375	2.56862736
28.16838837	2.45098042
28.17250824	2.43137264
28.17250824	2.56862736
28.17649841	2.74509811
28.18063545	2.80392146
28.18473244	2.62745094
28.18473244	2.45098042
28.18885231	2.39215684
28.19296455	2.50980401
28.19701958	2.74509811
28.20126343	2.72549009
28.20521927	2.52941179
28.20936584	2.43137264
28.21350288	2.49019599
28.21350288	2.66666675
28.21752357	2.80392146
28.22163582	2.74509811
28.22580719	2.54901958
28.22990990	2.41176462
28.23387527	2.58823538
28.23801231	2.76470590
28.24223137	2.78431368
28.24223137	2.60784316
28.24625397	2.47058821
28.25020981	2.41176462
28.25433922	2.52941179
28.25856590	2.80392146
28.26261330	2.64705873
28.26658630	2.45098042
28.27070618	2.35294127
28.27070618	2.41176462
28.27480316	2.62745094
28.27902222	2.74509811
28.28309250	2.62745094
28.28721428	2.35294127
28.29117012	2.37254906
28.29533195	2.54901958
28.29938698	2.72549009
28.29938698	2.70588231
28.30344963	2.52941179
28.30751419	2.39215684
28.31170845	2.37254906
28.31584549	2.72549009
28.31983376	2.78431368
28.32393837	2.62745094
28.32824707	2.45098042
28.32824707	2.41176462
28.33222008	2.50980401
28.33643150	2.72549009
28.34047890	2.82352948
28.34047890	2.68627453
28.34454918	2.49019599
28.34863663	2.41176462
28.35285568	2.45098042
28.35687065	2.64705873
28.35687065	2.80392146
28.36086845	2.72549009
28.36496353	2.52941179
28.36908531	2.41176462
28.36908531	2.43137264
28.37325478	2.58823538
28.37726021	2.74509811
28.38133240	2.74509811
28.38545990	2.54901958
28.38545990	2.39215684
28.38976860	2.37254906
28.39363670	2.49019599
28.39775658	2.68627453
28.39775658	2.74509811
28.40188599	2.58823538
28.40602303	2.43137264
28.40997887	2.35294127
28.41426277	2.41176462
28.41426277	2.60784316
28.41826057	2.72549009
28.42238235	2.62745094
28.42650986	2.43137264
28.42650986	2.33333325
28.43048286	2.33333325
28.43458748	2.52941179
28.43870735	2.68627453
28.44287872	2.64705873
28.44287872	2.47058821
28.44689178	2.33333325
28.45097160	2.31372547
28.45523071	2.47058821
28.45523071	2.66666675
28.45921326	2.70588231
28.46320152	2.52941179
28.46730614	2.37254906
28.47146034	2.31372547
28.47146034	2.41176462
28.47558022	2.60784316
28.47970009	2.70588231
28.48376465	2.56862736
28.48376465	2.39215684
28.48781967	2.29411769
28.49192429	2.35294127
28.49606895	2.54901958
28.50021362	2.70588231
28.50021362	2.62745094
28.50417900	2.43137264
28.50828362	2.31372547
28.51243591	2.33333325
28.51243591	2.49019599
28.51659012	2.66666675
28.52057076	2.68627453
28.52476501	2.49019599
28.52889442	2.35294127
28.52889442	2.31372547
28.53302193	2.43137264
28.53715897	2.62745094
28.54129601	2.68627453
28.54129601	2.56862736
28.54526138	2.39215684
28.54935837	2.31372547
28.55347061	2.39215684
28.55749130	2.58823538
28.55749130	2.72549009
28.56161308	2.62745094
28.56570816	2.43137264
28.56982994	2.33333325
28.56982994	2.33333325
28.57387543	2.52941179
28.57798004	2.68627453
28.58206749	2.68627453
28.58622169	2.37254906
28.59014511	2.35294127
28.59431458	2.49019599
28.59843636	2.70588231
28.59843636	2.72549009
28.60258865	2.56862736
28.60684967	2.43137264
28.61076546	2.39215684
28.61490250	2.66666675
28.61898994	2.78431368
28.62308502	2.64705873
28.62725449	2.47058821
28.62725449	2.39215684
28.63122749	2.45098042
28.63533211	2.64705873
28.63938713	2.76470590
28.64345932	2.49019599
28.64758873	2.37254906
28.65170097	2.37254906
28.65582848	2.56862736
28.65582848	2.72549009
28.65982628	2.74509811
28.66393089	2.54901958
28.66821480	2.41176462
28.67219734	2.50980401
28.67636681	2.68627453
28.68037224	2.76470590
28.68447685	2.60784316
28.68447685	2.43137264
28.68858147	2.33333325
28.69270897	2.43137264
28.69690323	2.62745094
28.70082855	2.62745094
28.70495605	2.45098042
28.70910072	2.35294127
28.71321487	2.35294127
28.71321487	2.54901958
28.71719551	2.68627453
28.72134781	2.66666675
28.72545242	2.49019599
28.72545242	2.35294127
28.72959709	2.33333325
28.73358727	2.49019599
28.73774910	2.68627453
28.74183655	2.72549009
28.74183655	2.54901958
28.74591637	2.41176462
28.75005341	2.37254906
28.75415802	2.47058821
28.75415802	2.66666675
28.75819588	2.74509811
28.76230049	2.62745094
28.76644516	2.43137264
28.77058983	2.35294127
28.77058983	2.41176462
28.77458763	2.60784316
28.77870941	2.72549009
28.78281403	2.66666675
28.78281403	2.47058821
28.78681946	2.35294127
28.79100609	2.35294127
28.79514122	2.50980401
28.79927826	2.66666675
28.79927826	2.66666675
28.80326080	2.49019599
28.80735588	2.35294127
28.81150246	2.31372547
28.81150246	2.43137264
28.81559753	2.64705873
28.81970978	2.70588231
28.82370758	2.54901958
28.82786942	2.37254906
28.82786942	2.29411769
28.83198166	2.35294127
28.83608627	2.56862736
28.84020615	2.70588231
28.84020615	2.58823538
28.84424591	2.41176462
28.84838104	2.31372547
28.85251808	2.33333325
28.85664749	2.52941179
28.85664749	2.68627453
28.86061287	2.66666675
28.86476517	2.47058821
28.86889458	2.33333325
28.86889458	2.31372547
28.87301445	2.49019599
28.87697983	2.66666675
28.88126373	2.70588231
28.88523865	2.54901958
28.88523865	2.39215684
28.88933372	2.33333325
28.89346313	2.43137264
28.89750099	2.64705873
28.89750099	2.74509811
28.90161324	2.60784316
28.90571785	2.43137264
28.90982246	2.33333325
28.91380310	2.39215684
28.91380310	2.58823538
28.91795731	2.72549009
28.92215157	2.66666675
28.92619705	2.45098042
28.92619705	2.35294127
28.93017006	2.35294127
28.93429947	2.54901958
28.93851852	2.70588231
28.94256592	2.68627453
28.94256592	2.49019599
28.94678497	2.35294127
28.95072556	2.33333325
28.95482826	2.47058821
28.95482826	2.68627453
28.95895767	2.72549009
28.96314430	2.54901958
28.96721458	2.41176462
28.97120476	2.43137264
28.97536659	2.64705873
28.97946167	2.76470590
28.98359108	2.64705873
28.98359108	2.45098042
28.98756409	2.37254906
28.99170113	2.41176462
28.99583817	2.58823538
28.99988556	2.68627453
29.00394058	2.50980401
29.00801086	2.41176462
29.01223755	2.41176462
29.01223755	2.56862736
29.01627731	2.80392146
29.02033997	2.84313726
29.02443695	2.68627453
29.02861404	2.50980401
29.03271866	2.58823538
29.03671646	2.80392146
29.04084396	2.88235283
29.04084396	2.74509811
29.04495811	2.54901958
29.04908562	2.39215684
29.05321503	2.47058821
29.05725288	2.74509811
29.06138992	2.68627453
29.06547737	2.50980401
29.06958199	2.41176462
29.06958199	2.45098042
29.07357979	2.64705873
29.07775879	2.80392146
29.08182907	2.78431368
29.08595085	2.50980401
29.09012032	2.47058821
29.09422302	2.54901958
29.09819794	2.76470590
29.09819794	2.82352948
29.10231781	2.64705873
29.10647011	2.47058821
29.11057472	2.39215684
29.11057472	2.47058821
29.11457253	2.66666675
29.11870193	2.76470590
29.12306023	2.62745094
29.12699127	2.45098042
29.12699127	2.35294127
29.13098907	2.37254906
29.13509369	2.54901958
29.13919830	2.68627453
29.13919830	2.68627453
29.14332581	2.49019599
29.14738083	2.39215684
29.15147018	2.37254906
29.15550804	2.50980401
29.15550804	2.70588231
29.15970230	2.72549009
29.16370773	2.58823538
29.16781998	2.39215684
29.16781998	2.33333325
29.17194176	2.50980401
29.17632484	2.76470590
29.18023109	2.86274505
29.18425369	2.70588231
29.18425369	2.52941179
29.18835831	2.45098042
29.19245338	2.50980401
29.19658279	2.70588231
29.19658279	2.86274505
29.20062065	2.80392146
29.20471001	2.62745094
29.20879745	2.50980401
29.21294212	2.50980401
29.21294212	2.68627453
29.21694756	2.84313726
29.22121620	2.90196085
29.22519684	2.72549009
29.22519684	2.58823538
29.22933388	2.52941179
29.23346329	2.62745094
29.23744392	2.84313726
29.24161339	2.90196085
29.24161339	2.74509811
29.24576759	2.58823538
29.24983025	2.52941179
29.25395203	2.58823538
29.25395203	2.80392146
29.25790787	2.92156863
29.26214409	2.84313726
29.26620674	2.62745094
29.27032661	2.49019599
29.27032661	2.52941179
29.27445602	2.70588231
29.27842903	2.86274505
29.28256607	2.82352948
29.28256607	2.60784316
29.28669548	2.52941179
29.29070091	2.50980401
29.29491997	2.64705873
29.29901505	2.82352948
29.29901505	2.84313726
29.30313683	2.66666675
29.30727386	2.50980401
29.31123734	2.47058821
29.31123734	2.56862736
29.31536674	2.78431368
29.31947136	2.86274505
29.32362366	2.72549009
29.32758141	2.54901958
29.32758141	2.45098042
29.33175850	2.50980401
29.33582306	2.68627453
29.33995056	2.84313726
29.33995056	2.76470590
29.34407234	2.52941179
29.34824944	2.41176462
29.35224724	2.43137264
29.35639191	2.78431368
29.36037445	2.80392146
29.36449432	2.62745094
29.36860657	2.49019599
29.36860657	2.39215684
29.37276840	2.50980401
29.37704468	2.74509811
29.38085365	2.80392146
29.38499832	2.49019599
29.38909531	2.41176462
29.39320755	2.50980401
29.39732742	2.72549009
29.39732742	2.84313726
29.40137482	2.70588231
29.40545464	2.52941179
29.40959930	2.47058821
29.41374397	2.68627453
29.41775894	2.80392146
29.42188835	2.74509811
29.42600822	2.54901958
29.42600822	2.43137264
29.43012810	2.41176462
29.43426514	2.54901958
29.43823814	2.72549009
29.44236755	2.62745094
29.44651222	2.41176462
29.45046997	2.37254906
29.45465469	2.50980401
29.45465469	2.68627453
29.45873451	2.74509811
29.46283150	2.60784316
29.46700859	2.41176462
29.47095680	2.37254906
29.47519302	2.56862736
29.47919083	2.70588231
29.48332024	2.64705873
29.48332024	2.43137264
29.48730087	2.29411769
29.49141312	2.29411769
29.49555779	2.50980401
29.49555779	2.66666675
29.49964523	2.68627453
29.50361824	2.47058821
29.50782204	2.33333325
29.51199150	2.25490189
29.51199150	2.39215684
29.51601410	2.58823538
29.52019882	2.64705873
29.52432823	2.47058821
29.52432823	2.31372547
29.52834320	2.21568632
29.53243065	2.29411769
29.53657532	2.49019599
29.54076195	2.60784316
29.54076195	2.45098042
29.54477501	2.25490189
29.54887962	2.13725495
29.55300903	2.19607854
29.55300903	2.39215684
29.55701447	2.56862736
29.56129074	2.49019599
29.56523895	2.31372547
29.56932640	2.19607854
29.56932640	2.17647052
29.57344818	2.35294127
29.57747841	2.54901958
29.58159065	2.56862736
29.58159065	2.39215684
29.58570290	2.27450991
29.58988953	2.25490189
29.59379578	2.41176462
29.59794235	2.60784316
29.59794235	2.70588231
29.60212708	2.54901958
29.60618210	2.39215684
29.61033630	2.33333325
29.61033630	2.43137264
29.61431694	2.66666675
29.61844635	2.76470590
29.62255859	2.68627453
29.62674522	2.50980401
29.62674522	2.43137264
29.63075829	2.41176462
29.63486290	2.58823538
29.63895988	2.74509811
29.63895988	2.72549009
29.64307213	2.50980401
29.64726639	2.37254906
29.65119743	2.35294127
29.65525246	2.45098042
29.65525246	2.66666675
29.65944672	2.76470590
29.66357613	2.60784316
29.66756630	2.37254906
29.66756630	2.31372547
29.67170334	2.41176462
29.67584038	2.58823538
29.67991829	2.72549009
29.68404770	2.54901958
29.68404770	2.35294127
29.68812752	2.29411769
29.69234657	2.31372547
29.69627762	2.47058821
29.69627762	2.60784316
29.70030975	2.56862736
29.70442963	2.35294127
29.70863152	2.29411769
29.71270370	2.23529410
29.71270370	2.37254906
29.71683311	2.54901958
29.72082901	2.54901958
29.72507286	2.39215684
29.72507286	2.27450991
29.72912025	2.21568632
29.73326492	2.29411769
29.73724747	2.50980401
29.74133492	2.49019599
29.74548721	2.31372547
29.74958420	2.21568632
29.75369644	2.31372547
29.75369644	2.50980401
29.75769424	2.68627453
29.76187134	2.60784316
29.76600838	2.41176462
29.77008057	2.27450991
29.77419281	2.50980401
29.77818298	2.66666675
29.78232002	2.68627453
29.78232002	2.47058821
29.78646469	2.35294127
29.79044533	2.35294127
29.79458237	2.47058821
29.79867935	2.76470590
29.80282402	2.62745094
29.80695152	2.45098042
29.81097412	2.35294127
29.81097412	2.49019599
29.81524277	2.70588231
29.81920815	2.80392146
29.82332802	2.72549009
29.82732582	2.47058821
29.83148766	2.52941179
29.83563232	2.70588231
29.83969498	2.84313726
29.83969498	2.82352948
29.84372711	2.58823538
29.84785461	2.54901958
29.85200882	2.52941179
29.85621071	2.82352948
29.86021614	2.88235283
29.86420631	2.68627453
29.86836052	2.52941179
29.86836052	2.49019599
29.87248802	2.56862736
29.87658501	2.68627453
29.88073730	2.76470590
29.88073730	2.64705873
29.88475227	2.43137264
29.88886452	2.37254906
29.89294434	2.45098042
29.89707184	2.62745094
29.89707184	2.66666675
29.90125847	2.60784316
29.90519905	2.41176462
29.90943527	2.27450991
29.90943527	2.31372547
29.91344833	2.50980401
29.91747856	2.64705873
29.92163277	2.58823538
29.92579460	2.39215684
29.92579460	2.31372547
29.92989731	2.27450991
29.93388748	2.37254906
29.93799210	2.60784316
29.93799210	2.64705873
29.94211197	2.43137264
29.94626617	2.25490189
29.95033646	2.17647052
29.95432663	2.29411769
29.95432663	2.50980401
29.95844650	2.62745094
29.96260834	2.49019599
29.96675301	2.31372547
29.96675301	2.21568632
29.97070313	2.33333325
29.97479057	2.54901958
29.97899246	2.70588231
29.98312950	2.66666675
29.98312950	2.47058821
29.98725891	2.35294127
29.99127197	2.37254906
29.99535942	2.56862736
29.99535942	2.72549009
29.99948120	2.78431368
30.00363350	2.62745094
30.00760651	2.49019599
30.01176071	2.43137264
30.01176071	2.54901958
30.01587296	2.78431368
30.01998520	2.86274505
30.02406502	2.70588231
30.02406502	2.52941179
30.02820206	2.43137264
30.03222466	2.50980401
30.03635216	2.72549009
30.04045677	2.82352948
30.04045677	2.70588231
30.04447174	2.52941179
30.04860878	2.43137264
30.05274582	2.43137264
30.05274582	2.58823538
30.05684853	2.72549009
30.06094551	2.74509811
30.06500053	2.54901958
30.06911278	2.35294127
30.06911278	2.35294127
30.07325745	2.49019599
30.07720566	2.64705873
30.08143425	2.68627453
30.08143425	2.52941179
30.08551407	2.35294127
30.08959198	2.27450991
30.09370613	2.37254906
30.09769440	2.66666675
30.10188103	2.56862736
30.10594368	2.39215684
30.11002350	2.27450991
30.11002350	2.31372547
30.11417770	2.52941179
30.11819077	2.68627453
30.12231255	2.60784316
30.12645721	2.29411769
30.13044548	2.29411769
30.13455009	2.47058821
30.13868713	2.64705873
30.13868713	2.62745094
30.14284134	2.45098042
30.14698601	2.29411769
30.15096664	2.29411769
30.15519524	2.62745094
30.15919113	2.76470590
30.16331291	2.62745094
30.16736031	2.45098042
30.16736031	2.31372547
30.17143059	2.45098042
30.17554283	2.66666675
30.17969704	2.82352948
30.18379211	2.52941179
30.18779945	2.37254906
30.19188690	2.43137264
30.19610596	2.66666675
30.19610596	2.82352948
30.20023346	2.74509811
30.20419121	2.56862736
30.20831871	2.43137264
30.21244049	2.58823538
30.21660995	2.74509811
30.22061539	2.80392146
30.22470284	2.66666675
30.22470284	2.49019599
30.22879982	2.45098042
30.23295212	2.52941179
30.23705673	2.74509811
30.23705673	2.78431368
30.24119377	2.62745094
30.24521637	2.50980401
30.24932098	2.37254906
30.25343323	2.39215684
30.25343323	2.56862736
30.25748825	2.72549009
30.26165771	2.70588231
30.26572990	2.52941179
30.26572990	2.39215684
30.26984215	2.35294127
30.27393723	2.50980401
30.27801704	2.70588231
30.28224373	2.74509811
30.28224373	2.54901958
30.28618431	2.39215684
30.29042816	2.37254906
30.29440117	2.47058821
30.29440117	2.64705873
30.29840660	2.74509811
30.30247879	2.58823538
30.30659866	2.41176462
30.31077766	2.37254906
30.31077766	2.41176462
30.31473351	2.58823538
30.31885338	2.72549009
30.32297516	2.66666675
30.32297516	2.45098042
30.32718468	2.31372547
30.33115005	2.31372547
30.33522224	2.52941179
30.33940697	2.70588231
30.33940697	2.70588231
30.34353638	2.52941179
30.34754181	2.39215684
30.35165405	2.39215684
30.35165405	2.52941179
30.35580826	2.76470590
30.35996246	2.84313726
30.36392593	2.74509811
30.36819458	2.58823538
30.36819458	2.54901958
30.37218475	2.66666675
30.37629700	2.86274505
30.38039207	2.96078420
30.38039207	2.88235283
30.38441467	2.66666675
30.38847733	2.56862736
30.39267159	2.60784316
30.39680862	2.88235283
30.39680862	2.98039222
30.40075684	2.92156863
30.40491104	2.68627453
30.40918732	2.50980401
30.40918732	2.54901958
30.41318512	2.70588231
30.41719055	2.88235283
30.42129517	2.86274505
30.42541504	2.72549009
30.42541504	2.54901958
30.42956924	2.43137264
30.43369865	2.52941179
30.43781853	2.72549009
30.43781853	2.76470590
30.44216919	2.60784316
30.44595337	2.45098042
30.45010567	2.39215684
30.45421028	2.47058821
30.45421028	2.64705873
30.45824051	2.74509811
30.46231270	2.68627453
30.46642494	2.56862736
30.46642494	2.41176462
30.47049713	2.45098042
30.47457504	2.64705873
30.47872925	2.76470590
30.48282433	2.62745094
30.48694611	2.50980401
30.49092674	2.47058821
30.49531746	2.62745094
30.49531746	2.82352948
30.49920082	2.84313726
30.50332069	2.72549009
30.50745010	2.54901958
30.51152229	2.56862736
30.51555252	2.74509811
30.51962280	2.88235283
30.52380180	2.74509811
30.52380180	2.54901958
30.52779198	2.49019599
30.53186989	2.52941179
30.53603172	2.76470590
30.54020119	2.80392146
30.54433823	2.66666675
30.54828835	2.52941179
30.55245781	2.47058821
30.55245781	2.66666675
30.55657768	2.86274505
30.56059265	2.86274505
30.56465530	2.66666675
30.56880760	2.45098042
30.57292938	2.52941179
30.57707405	2.68627453
30.58113670	2.72549009
30.58113670	2.58823538
30.58515930	2.39215684
30.58925629	2.27450991
30.59340096	2.31372547
30.59746361	2.62745094
30.60156059	2.50980401
30.60568810	2.31372547
30.60987473	2.13725495
30.60987473	2.15686274
30.61400414	2.29411769
30.61797714	2.37254906
30.62223625	2.31372547
30.62223625	2.05882359
30.62620163	1.94117641
30.63036346	1.88235295
30.63436127	2.03921580
30.63848877	2.19607854
30.63848877	2.23529410
30.64282227	2.01960778
30.64671516	1.88235295
30.65084267	1.84313726
30.65084267	1.92156863
30.65482521	2.15686274
30.65893745	2.31372547
30.66309929	2.17647052
30.66720200	2.00000000
30.66720200	1.90196073
30.67118454	1.98039210
30.67531204	2.19607854
30.67948151	2.37254906
30.67948151	2.35294127
30.68358612	2.13725495
30.68754387	2.01960778
30.69164658	2.03921580
30.69600487	2.25490189
30.69600487	2.47058821
30.69991302	2.50980401
30.70386124	2.35294127
30.70812225	2.25490189
30.70812225	2.21568632
30.71216011	2.35294127
30.71627998	2.60784316
30.72043419	2.70588231
30.72459602	2.56862736
30.72459602	2.43137264
30.72856903	2.39215684
30.73266411	2.47058821
30.73681068	2.70588231
30.73681068	2.84313726
30.74081612	2.80392146
30.74498558	2.62745094
30.74910545	2.50980401
30.75324249	2.56862736
30.75324249	2.76470590
30.75725746	2.90196085
30.76135254	2.86274505
30.76548958	2.68627453
30.76548958	2.54901958
30.76958656	2.58823538
30.77369118	2.72549009
30.77768898	2.86274505
30.78191566	2.90196085
30.78191566	2.72549009
30.78595352	2.56862736
30.79005814	2.52941179
30.79426003	2.58823538
30.79426003	2.78431368
30.79812622	2.92156863
30.80230522	2.76470590
30.80641747	2.58823538
30.81057167	2.45098042
30.81057167	2.50980401
30.81455994	2.66666675
30.81868935	2.82352948
30.82280922	2.74509811
30.82280922	2.54901958
30.82693863	2.35294127
30.83096123	2.37254906
30.83523750	2.54901958
30.83920097	2.72549009
30.83920097	2.68627453
30.84331512	2.45098042
30.84743500	2.25490189
30.85149002	2.21568632
30.85149002	2.31372547
30.85556984	2.52941179
30.85963249	2.62745094
30.86378670	2.47058821
30.86779976	2.27450991
30.87190437	2.35294127
30.87605667	2.52941179
30.88018608	2.64705873
30.88018608	2.54901958
30.88417625	2.35294127
30.88823128	2.27450991
30.89240074	2.29411769
30.89648056	2.64705873
30.90067482	2.58823538
30.90464783	2.35294127
30.90879250	2.27450991
30.90879250	2.23529410
30.91293716	2.35294127
30.91705894	2.54901958
30.92117882	2.58823538
30.92513657	2.27450991
30.92928123	2.17647052
30.93343353	2.23529410
30.93755531	2.45098042
30.93755531	2.54901958
30.94153595	2.39215684
30.94571495	2.25490189
30.94985199	2.21568632
30.95394707	2.37254906
30.95794487	2.56862736
30.96218872	2.49019599
30.96624374	2.27450991
30.96624374	2.15686274
30.97030640	2.15686274
30.97430420	2.31372547
30.97850609	2.50980401
30.98250389	2.37254906
30.98668289	2.21568632
30.99078751	2.19607854
30.99482536	2.31372547
30.99482536	2.50980401
30.99893761	2.60784316
31.00305748	2.45098042
31.00717926	2.31372547
31.00717926	2.21568632
31.01117706	2.29411769
31.01535416	2.50980401
31.01949120	2.62745094
31.02357864	2.54901958
31.02357864	2.31372547
31.02756119	2.25490189
31.03168106	2.25490189
31.03587532	2.43137264
31.03587532	2.56862736
31.03993034	2.56862736
31.04400253	2.41176462
31.04816246	2.25490189
31.05216980	2.25490189
31.05216980	2.39215684
31.05629730	2.62745094
31.06044388	2.60784316
31.06456375	2.41176462
31.06456375	2.25490189
31.06859398	2.25490189
31.07273102	2.35294127
31.07681847	2.56862736
31.08108711	2.66666675
31.08108711	2.56862736
31.08497810	2.39215684
31.08912277	2.27450991
31.09321022	2.27450991
31.09321022	2.49019599
31.09730721	2.60784316
31.10130501	2.56862736
31.10549164	2.33333325
31.10959435	2.15686274
31.10959435	2.07843137
31.11368370	2.19607854
31.11773872	2.31372547
31.12185860	2.25490189
31.12185860	1.96078432
31.12600327	1.78431368
31.13013268	1.72549021
31.13422775	1.74509799
31.13824272	1.88235295
31.13824272	1.96078432
31.14235497	1.80392158
31.14645004	1.62745094
31.15070343	1.54901958
31.15070343	1.62745094
31.15457726	1.84313726
31.15868950	1.98039210
31.16280174	1.86274505
31.16699600	1.70588231
31.16699600	1.62745094
31.17094421	1.70588231
31.17516327	1.90196073
31.17926025	2.09803915
31.17926025	2.11764717
31.18325806	2.00000000
31.18743515	1.90196073
31.19139290	1.94117641
31.19559479	2.09803915
31.19559479	2.35294127
31.19969940	2.45098042
31.20381165	2.35294127
31.20793152	2.25490189
31.20793152	2.23529410
31.21191406	2.37254906
31.21609116	2.64705873
31.22023582	2.78431368
31.22430801	2.58823538
31.22838783	2.52941179
31.23242569	2.58823538
31.23661232	2.82352948
31.23661232	3.00000000
31.24069214	2.98039222
31.24464035	2.82352948
31.24879265	2.68627453
31.25292206	2.86274505
31.25705910	3.05882359
31.26122093	3.07843137
31.26516151	2.92156863
31.26516151	2.76470590
31.26930618	2.72549009
31.27343559	2.84313726
31.27757263	3.01960778
31.28158569	2.98039222
31.28570747	2.80392146
31.28985214	2.70588231
31.29394722	2.76470590
31.29394722	2.94117641
31.29792976	3.05882359
31.30218124	2.96078420
31.30623627	2.76470590
31.31033134	2.64705873
31.31422234	2.80392146
31.31840134	2.90196085
31.32252121	2.86274505
31.32252121	2.64705873
31.32668304	2.50980401
31.33080292	2.47058821
31.33477592	2.60784316
31.33892250	2.80392146
31.34303474	2.60784316
31.34726143	2.43137264
31.35138130	2.37254906
31.35138130	2.49019599
31.35532188	2.68627453
31.35942650	2.80392146
31.36354637	2.62745094
31.36354637	2.45098042
31.36751938	2.35294127
31.37159157	2.41176462
31.37585068	2.60784316
31.37991524	2.74509811
31.37991524	2.70588231
31.38400269	2.50980401
31.38815498	2.41176462
31.39214516	2.43137264
31.39214516	2.56862736
31.39628983	2.74509811
31.40041161	2.72549009
31.40435219	2.52941179
31.40851212	2.41176462
31.40851212	2.39215684
31.41260910	2.50980401
31.41679573	2.70588231
31.42093277	2.78431368
31.42093277	2.64705873
31.42487335	2.50980401
31.42904282	2.43137264
31.43317986	2.45098042
31.43730736	2.66666675
31.43730736	2.82352948
31.44124794	2.72549009
31.44542694	2.52941179
31.44953918	2.39215684
31.44953918	2.43137264
31.45368385	2.62745094
31.45781326	2.76470590
31.46183395	2.74509811
31.46597099	2.56862736
31.46597099	2.41176462
31.47006798	2.35294127
31.47417259	2.49019599
31.47817802	2.68627453
31.47817802	2.72549009
31.48237228	2.52941179
31.48636246	2.37254906
31.49054718	2.31372547
31.49470901	2.41176462
31.49470901	2.62745094
31.49865723	2.72549009
31.50281143	2.54901958
31.50693130	2.35294127
31.50693130	2.27450991
31.51106834	2.33333325
31.51518059	2.52941179
31.51918602	2.64705873
31.52330780	2.60784316
31.52330780	2.41176462
31.52743721	2.27450991
31.53138542	2.31372547
31.53553009	2.47058821
31.53553009	2.68627453
31.53960991	2.68627453
31.54378700	2.49019599
31.54772758	2.35294127
31.55192184	2.29411769
31.55192184	2.43137264
31.55604362	2.64705873
31.56018829	2.76470590
31.56427574	2.62745094
31.56427574	2.45098042
31.56828117	2.35294127
31.57241821	2.45098042
31.57654762	2.66666675
31.58066750	2.74509811
31.58066750	2.66666675
31.58472252	2.47058821
31.58885193	2.33333325
31.59295654	2.39215684
31.59295654	2.62745094
31.59705162	2.78431368
31.60117340	2.72549009
31.60525131	2.54901958
31.60932350	2.39215684
31.61341858	2.52941179
31.61749840	2.74509811
31.62155342	2.80392146
31.62155342	2.60784316
31.62570763	2.43137264
31.62981987	2.37254906
31.63393211	2.47058821
31.63793755	2.72549009
31.64212418	2.60784316
31.64620399	2.45098042
31.65034866	2.35294127
31.65034866	2.39215684
31.65431404	2.56862736
31.65843391	2.72549009
31.66255569	2.66666675
31.66671753	2.37254906
31.67074776	2.37254906
31.67477798	2.54901958
31.67889786	2.70588231
31.67889786	2.68627453
31.68301010	2.49019599
31.68718910	2.37254906
31.69125175	2.33333325
31.69532394	2.68627453
31.69943619	2.72549009
31.70356369	2.56862736
31.70768547	2.43137264
31.70768547	2.37254906
31.71167374	2.45098042
31.71576309	2.66666675
31.71990776	2.80392146
31.71990776	2.70588231
31.72398758	2.52941179
31.72819710	2.43137264
31.73212242	2.47058821
31.73631668	2.66666675
31.73631668	2.84313726
31.74041176	2.80392146
31.74458122	2.64705873
31.74853897	2.50980401
31.74853897	2.49019599
31.75267601	2.64705873
31.75681305	2.80392146
31.76113701	2.86274505
31.76494789	2.68627453
31.76494789	2.54901958
31.76923180	2.49019599
31.77322006	2.58823538
31.77735710	2.80392146
31.77735710	2.88235283
31.78135490	2.74509811
31.78546715	2.54901958
31.78960419	2.47058821
31.79368401	2.50980401
31.79368401	2.70588231
31.79768181	2.82352948
31.80179405	2.76470590
31.80598068	2.56862736
31.80598068	2.45098042
31.81006813	2.45098042
31.81416512	2.60784316
31.81814575	2.78431368
31.82226563	2.78431368
31.82226563	2.58823538
31.82642746	2.45098042
31.83054924	2.41176462
31.83466911	2.52941179
31.83466911	2.72549009
31.83864212	2.80392146
31.84277153	2.66666675
31.84696579	2.47058821
31.85110283	2.41176462
31.85110283	2.49019599
31.85521507	2.70588231
31.85919571	2.84313726
31.86329269	2.74509811
31.86329269	2.50980401
31.86747742	2.41176462
31.87145042	2.43137264
31.87556267	2.62745094
31.87966728	2.76470590
31.87966728	2.74509811
31.88376427	2.52941179
31.88778687	2.39215684
31.89191437	2.39215684
31.89191437	2.54901958
31.89605141	2.72549009
31.90013123	2.76470590
31.90425110	2.58823538
31.90819168	2.43137264
31.90819168	2.37254906
31.91241074	2.47058821
31.91646576	2.66666675
31.92066956	2.76470590
31.92066956	2.62745094
31.92460823	2.41176462
31.92878723	2.35294127
31.93290710	2.41176462
31.93704414	2.60784316
31.93704414	2.74509811
31.94119835	2.68627453
31.94514656	2.49019599
31.94933319	2.39215684
31.94933319	2.37254906
31.95348549	2.54901958
31.95761490	2.72549009
31.96182442	2.72549009
31.96569252	2.39215684
31.96984482	2.37254906
31.97393227	2.50980401
31.97804451	2.68627453
31.97804451	2.74509811
31.98222351	2.60784316
31.98619652	2.41176462
31.99030113	2.35294127
31.99444580	2.64705873
31.99846077	2.78431368
32.00253296	2.66666675
32.00666809	2.45098042
32.00666809	2.35294127
32.01078796	2.37254906
32.01480484	2.56862736
32.01891708	2.72549009
32.02306747	2.49019599
32.02714157	2.37254906
32.03136826	2.37254906
32.03533936	2.50980401
32.03533936	2.68627453
32.03948593	2.72549009
32.04357147	2.54901958
32.04766846	2.41176462
32.05172348	2.49019599
32.05581284	2.70588231
32.05994034	2.76470590
32.06397247	2.64705873
32.06397247	2.45098042
32.06818390	2.35294127
32.07213974	2.39215684
32.07630157	2.56862736
32.08042145	2.58823538
32.08459854	2.39215684
32.08856201	2.31372547
32.09270859	2.35294127
32.09270859	2.56862736
32.09682846	2.74509811
32.10091782	2.76470590
32.10498810	2.56862736
32.10498810	2.47058821
32.10920715	2.45098042
32.11317062	2.56862736
32.11725998	2.78431368
32.12140656	2.84313726
32.12140656	2.70588231
32.12541962	2.54901958
32.12953949	2.47058821
32.13365936	2.54901958
32.13365936	2.76470590
32.13780594	2.82352948
32.14179611	2.66666675
32.14592361	2.47058821
32.15008545	2.37254906
32.15008545	2.45098042
32.15421295	2.70588231
32.15815353	2.88235283
32.16237259	2.86274505
32.16237259	2.68627453
32.16641998	2.54901958
32.17059708	2.52941179
32.17467880	2.66666675
32.17869186	2.86274505
32.17869186	2.90196085
32.18283844	2.72549009
32.18685913	2.56862736
32.19102859	2.50980401
32.19102859	2.58823538
32.19518280	2.78431368
32.19914627	2.90196085
32.20324326	2.76470590
32.20734024	2.60784316
32.20734024	2.54901958
32.21138000	2.58823538
32.21548080	2.76470590
32.21964264	2.90196085
32.21964264	2.80392146
32.22379684	2.60784316
32.22788620	2.50980401
32.23185730	2.47058821
32.23620987	2.62745094
32.23620987	2.78431368
32.24013901	2.76470590
32.24431992	2.56862736
32.24843216	2.41176462
32.24843216	2.37254906
32.25235367	2.50980401
32.25649261	2.72549009
32.26067734	2.78431368
32.26476669	2.62745094
32.26476669	2.45098042
32.26876450	2.37254906
32.27285004	2.45098042
32.27701950	2.66666675
32.27701950	2.78431368
32.28113937	2.68627453
32.28511429	2.50980401
32.28926086	2.43137264
32.29333115	2.43137264
32.29333115	2.60784316
32.29751587	2.78431368
32.30154037	2.72549009
32.30566025	2.52941179
32.30566025	2.41176462
32.30978775	2.37254906
32.31391907	2.50980401
32.31790543	2.68627453
32.32217407	2.72549009
32.32217407	2.54901958
32.32614136	2.39215684
32.33030319	2.35294127
32.33449554	2.47058821
32.33449554	2.66666675
32.33847809	2.76470590
32.34259796	2.60784316
32.34671783	2.43137264
32.35080719	2.39215684
32.35483551	2.58823538
32.35891724	2.72549009
32.36316681	2.64705873
32.36316681	2.47058821
32.36716461	2.35294127
32.37134171	2.35294127
32.37528229	2.50980401
32.37942123	2.70588231
32.38358307	2.50980401
32.38760376	2.37254906
32.39177322	2.33333325
32.39177322	2.45098042
32.39580536	2.62745094
32.39990234	2.68627453
32.40399551	2.50980401
32.40812683	2.27450991
32.41214752	2.39215684
32.41650772	2.58823538
32.42044449	2.70588231
32.42044449	2.58823538
32.42467499	2.41176462
32.42853928	2.31372547
32.43265915	2.33333325
32.43684769	2.68627453
32.44095230	2.64705873
32.44493866	2.43137264
32.44908524	2.31372547
32.44908524	2.31372547
32.45313263	2.47058821
32.45728683	2.66666675
32.46143723	2.70588231
32.46538925	2.39215684
32.46953964	2.35294127
32.47366333	2.47058821
32.47779846	2.66666675
32.47779846	2.76470590
32.48176193	2.62745094
32.48608017	2.45098042
32.49005508	2.37254906
32.49421692	2.64705873
32.49818802	2.78431368
32.50229263	2.72549009
32.50646210	2.52941179
32.50646210	2.43137264
32.51058197	2.45098042
32.51466370	2.64705873
32.51859283	2.80392146
32.51859283	2.76470590
32.52273178	2.56862736
32.52690887	2.39215684
32.53103638	2.39215684
32.53523254	2.54901958
32.53523254	2.72549009
32.53921509	2.76470590
32.54330063	2.62745094
32.54774857	2.47058821
32.54774857	2.39215684
32.55141830	2.47058821
32.55558014	2.66666675
32.55968475	2.78431368
32.56384659	2.66666675
32.56384659	2.47058821
32.56791687	2.37254906
32.57195663	2.41176462
32.57618332	2.60784316
32.57618332	2.74509811
32.58015823	2.70588231
32.58432770	2.50980401
32.58829880	2.39215684
32.59254456	2.37254906
32.59254456	2.54901958
32.59659958	2.72549009
32.60070419	2.74509811
32.60482407	2.56862736
32.60482407	2.41176462
32.60892868	2.37254906
32.61294937	2.50980401
32.61703873	2.68627453
32.62121582	2.78431368
32.62121582	2.66666675
32.62519073	2.49019599
32.62929153	2.41176462
32.63333893	2.49019599
32.63333893	2.66666675
32.63751602	2.82352948
32.64149857	2.72549009
32.64566803	2.52941179
32.64978790	2.39215684
32.64978790	2.39215684
32.65390015	2.52941179
32.65792465	2.64705873
32.66217422	2.60784316
32.66217422	2.41176462
32.66618347	2.27450991
32.67032623	2.25490189
32.67443848	2.41176462
32.67853546	2.60784316
32.67853546	2.66666675
32.68254089	2.50980401
32.68663788	2.33333325
32.69070053	2.25490189
32.69070053	2.35294127
32.69477081	2.56862736
32.69890213	2.64705873
32.70304489	2.52941179
32.70716476	2.33333325
32.70716476	2.23529410
32.71131134	2.23529410
32.71526718	2.45098042
32.71945572	2.62745094
32.71945572	2.58823538
32.72359848	2.43137264
32.72773743	2.31372547
32.73172760	2.31372547
32.73581314	2.68627453
32.73996735	2.72549009
32.74404526	2.54901958
32.74811935	2.39215684
32.74811935	2.33333325
32.75216675	2.47058821
32.75635147	2.68627453
32.76044846	2.78431368
32.76451874	2.47058821
32.76858139	2.39215684
32.77270126	2.45098042
32.77682114	2.66666675
32.77682114	2.80392146
32.78097534	2.70588231
32.78496552	2.50980401
32.78919220	2.37254906
32.79320526	2.56862736
32.79730225	2.74509811
32.80134964	2.72549009
32.80538177	2.52941179
32.80538177	2.37254906
32.80948257	2.35294127
32.81363678	2.49019599
32.81779099	2.66666675
32.82176590	2.50980401
32.82591629	2.33333325
32.83002090	2.27450991
32.83416748	2.35294127
32.83416748	2.56862736
32.83813858	2.66666675
32.84226990	2.52941179
32.84638977	2.33333325
32.85046768	2.29411769
32.85460663	2.49019599
32.85857773	2.62745094
32.86275864	2.60784316
32.86275864	2.41176462
32.86693573	2.27450991
32.87104034	2.27450991
32.87511826	2.43137264
32.87511826	2.62745094
32.87915802	2.64705873
32.88327789	2.49019599
32.88741302	2.35294127
32.89148712	2.29411769
32.89148712	2.41176462
32.89550781	2.62745094
32.89963913	2.72549009
32.90384674	2.58823538
32.90384674	2.41176462
32.90798569	2.31372547
32.91196442	2.39215684
32.91622543	2.62745094
32.92019272	2.76470590
32.92019272	2.72549009
32.92433548	2.52941179
32.92830276	2.45098042
32.93240356	2.47058821
32.93240356	2.68627453
32.93653488	2.88235283
32.94071960	2.90196085
32.94481659	2.68627453
32.94878769	2.50980401
32.94878769	2.45098042
32.95295715	2.58823538
32.95710373	2.76470590
32.96125793	2.80392146
32.96125793	2.62745094
32.96521378	2.43137264
32.96934128	2.37254906
32.97345352	2.49019599
32.97759247	2.66666675
32.97759247	2.78431368
32.98159790	2.66666675
32.98569489	2.45098042
32.98983765	2.35294127
32.98983765	2.35294127
32.99396896	2.54901958
32.99804688	2.70588231
33.00216675	2.64705873
33.00615692	2.45098042
33.00615692	2.33333325
33.01034546	2.33333325
33.01440811	2.49019599
33.01846313	2.68627453
33.01846313	2.68627453
33.02249908	2.50980401
33.02667999	2.37254906
33.03079224	2.35294127
33.03491211	2.47058821
33.03491211	2.64705873
33.03888321	2.72549009
33.04302216	2.56862736
33.04715729	2.39215684
33.04715729	2.31372547
33.05133820	2.37254906
33.05535889	2.56862736
33.05944824	2.68627453
33.06354141	2.60784316
33.06354141	2.41176462
33.06765366	2.31372547
33.07173538	2.31372547
33.07578278	2.49019599
33.07578278	2.66666675
33.07991028	2.64705873
33.08407974	2.45098042
33.08811188	2.31372547
33.09214783	2.27450991
33.09214783	2.41176462
33.09628677	2.60784316
33.10039139	2.66666675
33.10457611	2.47058821
33.10457611	2.29411769
33.10868073	2.27450991
33.11270142	2.39215684
33.11678314	2.58823538
33.12090302	2.56862736
33.12501526	2.33333325
33.12918472	2.15686274
33.13319016	2.13725495
33.13319016	2.31372547
33.13722992	2.47058821
33.14136505	2.43137264
33.14542007	2.27450991
33.14946747	2.15686274
33.15358734	2.33333325
33.15779877	2.52941179
33.16191864	2.54901958
33.16191864	2.37254906
33.16591644	2.21568632
33.17007065	2.19607854
33.17417526	2.35294127
33.17829514	2.66666675
33.18228531	2.49019599
33.18644714	2.29411769
33.19059372	2.21568632
33.19059372	2.29411769
33.19468689	2.49019599
33.19865417	2.62745094
33.20303726	2.52941179
33.20695114	2.27450991
33.21112061	2.27450991
33.21521759	2.45098042
33.21920013	2.60784316
33.21920013	2.60784316
33.22334290	2.39215684
33.22742462	2.29411769
33.23159409	2.25490189
33.23557663	2.58823538
33.23970413	2.62745094
33.24380112	2.47058821
33.24790192	2.31372547
33.24790192	2.25490189
33.25189972	2.33333325
33.25620270	2.54901958
33.26024246	2.64705873
33.26024246	2.50980401
33.26427841	2.33333325
33.26826096	2.23529410
33.27238846	2.25490189
33.27654266	2.47058821
33.27654266	2.62745094
33.28067017	2.56862736
33.28479385	2.39215684
33.28880692	2.27450991
33.28880692	2.27450991
33.29294205	2.43137264
33.29705429	2.60784316
33.30115128	2.62745094
33.30527878	2.43137264
33.30527878	2.29411769
33.30936050	2.25490189
33.31340790	2.39215684
33.31752777	2.60784316
33.31752777	2.66666675
33.32155991	2.52941179
33.32566071	2.39215684
33.32977295	2.31372547
33.33390427	2.37254906
33.33390427	2.56862736
33.33803940	2.70588231
33.34213638	2.60784316
33.34615707	2.41176462
33.34615707	2.29411769
33.35052490	2.31372547
33.35443115	2.47058821
33.35843658	2.62745094
33.36254120	2.60784316
33.36254120	2.43137264
33.36665344	2.29411769
33.37081528	2.25490189
33.37484741	2.41176462
33.37484741	2.58823538
33.37888718	2.62745094
33.38304901	2.47058821
33.38719177	2.29411769
33.39123154	2.21568632
33.39123154	2.29411769
33.39528656	2.47058821
33.39940643	2.60784316
33.40364075	2.49019599
33.40364075	2.31372547
33.40768051	2.19607854
33.41172028	2.25490189
33.41581345	2.45098042
33.41992569	2.58823538
33.41992569	2.54901958
33.42407990	2.35294127
33.42816925	2.23529410
33.43215179	2.23529410
33.43215179	2.39215684
33.43627930	2.60784316
33.44044113	2.62745094
33.44456863	2.45098042
33.44865036	2.29411769
33.44865036	2.25490189
33.45265579	2.39215684
33.45680618	2.56862736
33.46094513	2.62745094
33.46094513	2.49019599
33.46495819	2.33333325
33.46921921	2.23529410
33.47320175	2.31372547
33.47733688	2.52941179
33.47733688	2.64705873
33.48146439	2.56862736
33.48545456	2.39215684
33.48957443	2.29411769
33.48957443	2.31372547
33.49370575	2.50980401
33.49779129	2.68627453
33.50189590	2.64705873
33.50590134	2.31372547
33.51009750	2.29411769
33.51415253	2.45098042
33.51827240	2.62745094
33.51827240	2.68627453
33.52228546	2.50980401
33.52646637	2.33333325
33.53057861	2.29411769
33.53479767	2.58823538
33.53867722	2.68627453
33.54278946	2.54901958
33.54695129	2.39215684
33.54695129	2.33333325
33.55114746	2.37254906
33.55519485	2.54901958
33.55922318	2.66666675
33.56329727	2.47058821
33.56740952	2.37254906
33.57157135	2.39215684
33.57555771	2.56862736
33.57555771	2.72549009
33.57964706	2.74509811
33.58377457	2.56862736
33.58799362	2.41176462
33.59191132	2.49019599
33.59616089	2.70588231
33.60014343	2.78431368
33.60430527	2.64705873
33.60430527	2.50980401
33.60823822	2.45098042
33.61238861	2.52941179
33.61650467	2.78431368
33.62068939	2.78431368
33.62480927	2.62745094
33.62878418	2.50980401
33.63291168	2.52941179
33.63291168	2.70588231
33.63702393	2.84313726
33.64119339	2.78431368
33.64532089	2.56862736
33.64532089	2.43137264
33.64928818	2.41176462
33.65340042	2.54901958
33.65752792	2.76470590
33.66169739	2.82352948
33.66169739	2.58823538
33.66563034	2.45098042
33.66979980	2.39215684
33.67395401	2.47058821
33.67395401	2.68627453
33.67810822	2.78431368
33.68222046	2.62745094
33.68618393	2.41176462
33.69030380	2.31372547
33.69030380	2.39215684
33.69445038	2.60784316
33.69841385	2.74509811
33.70252609	2.68627453
33.70252609	2.47058821
33.70664597	2.35294127
33.71083450	2.33333325
33.71491241	2.50980401
33.71890259	2.64705873
33.71890259	2.64705873
33.72318649	2.45098042
33.72717667	2.31372547
33.73133850	2.25490189
33.73133850	2.39215684
33.73546600	2.58823538
33.73944092	2.68627453
33.74354553	2.54901958
33.74772263	2.41176462
33.74772263	2.33333325
33.75169373	2.41176462
33.75579834	2.60784316
33.75996780	2.74509811
33.75996780	2.62745094
33.76403427	2.43137264
33.76815414	2.33333325
33.77228165	2.31372547
33.77631378	2.49019599
33.77631378	2.62745094
33.78039932	2.58823538
33.78451920	2.39215684
33.78868103	2.27450991
33.78868103	2.27450991
33.79268646	2.43137264
33.79683304	2.58823538
33.80096054	2.62745094
33.80514145	2.43137264
33.80514145	2.27450991
33.80914688	2.23529410
33.81320190	2.33333325
33.81729507	2.52941179
33.81729507	2.62745094
33.82139206	2.50980401
33.82544708	2.33333325
33.82954407	2.27450991
33.83365631	2.35294127
33.83365631	2.52941179
33.83776855	2.66666675
33.84177399	2.60784316
33.84591293	2.43137264
33.84591293	2.29411769
33.85001755	2.29411769
33.85412979	2.47058821
33.85822296	2.64705873
33.86240387	2.64705873
33.86240387	2.45098042
33.86643219	2.31372547
33.87055206	2.27450991
33.87476349	2.39215684
33.87476349	2.62745094
33.87866974	2.70588231
33.88277435	2.54901958
33.88695526	2.37254906
33.89098358	2.37254906
33.89511108	2.58823538
33.89913559	2.72549009
33.90327835	2.60784316
33.90327835	2.41176462
33.90740967	2.27450991
33.91156387	2.33333325
33.91551971	2.52941179
33.91968918	2.66666675
33.92378616	2.49019599
33.92792130	2.33333325
33.93203354	2.33333325
33.93203354	2.49019599
33.93621826	2.68627453
33.94013596	2.74509811
33.94421387	2.56862736
33.94838715	2.37254906
33.95236588	2.49019599
33.95646286	2.68627453
33.96063995	2.78431368
33.96063995	2.66666675
33.96478653	2.49019599
33.96878433	2.41176462
33.97288895	2.47058821
33.97702408	2.82352948
33.98114395	2.76470590
33.98528290	2.56862736
33.98936844	2.47058821
33.98936844	2.47058821
33.99339294	2.66666675
33.99746323	2.82352948
34.00158310	2.80392146
34.00563812	2.50980401
34.00973511	2.47058821
34.01388931	2.58823538
34.01804352	2.78431368
34.01804352	2.86274505
34.02216339	2.66666675
34.02616882	2.50980401
34.03025436	2.43137264
34.03025436	2.52941179
34.03441620	2.72549009
34.03840637	2.84313726
34.04251099	2.76470590
34.04663086	2.56862736
34.04663086	2.45098042
34.05076218	2.50980401
34.05490494	2.70588231
34.05898666	2.86274505
34.05898666	2.80392146
34.06307983	2.58823538
34.06716156	2.45098042
34.07120132	2.47058821
34.07542801	2.60784316
34.07542801	2.78431368
34.07939148	2.82352948
34.08351135	2.66666675
34.08764267	2.49019599
34.08764267	2.45098042
34.09172058	2.54901958
34.09575272	2.76470590
34.09990311	2.84313726
34.10401535	2.68627453
34.10401535	2.50980401
34.10814667	2.39215684
34.11220932	2.47058821
34.11632919	2.68627453
34.11632919	2.82352948
34.12063217	2.74509811
34.12456894	2.54901958
34.12869263	2.43137264
34.13264847	2.43137264
34.13264847	2.62745094
34.13677597	2.80392146
34.14093781	2.80392146
34.14505005	2.60784316
34.14505005	2.45098042
34.14914703	2.39215684
34.15306091	2.50980401
34.15724945	2.70588231
34.16141891	2.78431368
34.16141891	2.60784316
34.16539001	2.41176462
34.16952133	2.31372547
34.17361450	2.39215684
34.17361450	2.58823538
34.17778397	2.70588231
34.18188858	2.60784316
34.18587112	2.43137264
34.19055557	2.31372547
34.19055557	2.35294127
34.19417953	2.54901958
34.19832230	2.72549009
34.20241928	2.72549009
34.20241928	2.52941179
34.20640945	2.39215684
34.21052170	2.35294127
34.21470642	2.50980401
34.21879578	2.68627453
34.21879578	2.72549009
34.22276688	2.56862736
34.22697830	2.43137264
34.23108292	2.39215684
34.23108292	2.49019599
34.23520279	2.70588231
34.23917770	2.80392146
34.24331284	2.66666675
34.24745941	2.49019599
34.24745941	2.41176462
34.25157928	2.45098042
34.25552750	2.66666675
34.25968933	2.76470590
34.25968933	2.64705873
34.26379395	2.41176462
34.26789856	2.27450991
34.27202606	2.31372547
34.27613068	2.72549009
34.28007126	2.76470590
34.28424835	2.58823538
34.28841019	2.43137264
34.28841019	2.39215684
34.29238510	2.49019599
34.29650497	2.66666675
34.30063248	2.72549009
34.30477905	2.41176462
34.30881500	2.37254906
34.31287384	2.45098042
34.31707382	2.62745094
34.31707382	2.72549009
34.32109833	2.62745094
34.32523346	2.45098042
34.32926559	2.35294127
34.33337021	2.56862736
34.33748245	2.72549009
34.34166718	2.68627453
34.34580231	2.49019599
34.34580231	2.35294127
34.34974289	2.35294127
34.35389709	2.50980401
34.35798645	2.68627453
34.36216354	2.54901958
34.36612701	2.41176462
34.37031555	2.35294127
34.37445068	2.47058821
34.37445068	2.66666675
34.37854004	2.76470590
34.38251114	2.60784316
34.38664246	2.41176462
34.39082718	2.35294127
34.39491653	2.56862736
34.39888763	2.72549009
34.40319824	2.64705873
34.40319824	2.43137264
34.40714645	2.31372547
34.41130066	2.31372547
34.41539383	2.49019599
34.41539383	2.64705873
34.41936874	2.66666675
34.42354584	2.47058821
34.42771530	2.31372547
34.43183517	2.31372547
34.43183517	2.43137264
34.43581772	2.64705873
34.43992233	2.72549009
34.44407654	2.56862736
34.44407654	2.37254906
34.44814682	2.31372547
34.45214462	2.37254906
34.45627213	2.58823538
34.46044922	2.68627453
34.46044922	2.58823538
34.46453094	2.43137264
34.46864319	2.31372547
34.47264862	2.33333325
34.47264862	2.50980401
34.47678757	2.68627453
34.48095703	2.64705873
34.48509216	2.47058821
34.48920441	2.35294127
34.48920441	2.33333325
34.49318695	2.50980401
34.49732208	2.68627453
34.50141144	2.70588231
34.50141144	2.52941179
34.50539398	2.35294127
34.50952148	2.29411769
34.51370621	2.39215684
34.51778030	2.58823538
34.51778030	2.68627453
34.52180862	2.52941179
34.52587891	2.35294127
34.53013992	2.27450991
34.53013992	2.33333325
34.53411484	2.50980401
34.53826523	2.66666675
34.54224777	2.56862736
34.54638672	2.39215684
34.54638672	2.29411769
34.55049896	2.33333325
34.55467606	2.49019599
34.55881119	2.66666675
34.55881119	2.64705873
34.56278610	2.47058821
34.56689072	2.35294127
34.57101822	2.33333325
34.57522202	2.49019599
34.57522202	2.68627453
34.57907867	2.76470590
34.58323288	2.60784316
34.58740234	2.45098042
34.58740234	2.37254906
34.59146500	2.45098042
34.59552765	2.66666675
34.59962463	2.78431368
34.60377121	2.64705873
34.60377121	2.45098042
34.60787582	2.35294127
34.61189651	2.39215684
34.61613846	2.58823538
34.61613846	2.78431368
34.62013626	2.74509811
34.62419891	2.56862736
34.62833786	2.45098042
34.63237000	2.43137264
34.63237000	2.58823538
34.63644791	2.78431368
34.64063263	2.80392146
34.64478683	2.60784316
34.64478683	2.45098042
34.64889145	2.37254906
34.65290451	2.49019599
34.65697861	2.66666675
34.66114807	2.60784316
34.66526794	2.39215684
34.66933060	2.31372547
34.67340088	2.39215684
34.67340088	2.56862736
34.67756271	2.72549009
34.68170929	2.62745094
34.68570709	2.41176462
34.68981171	2.29411769
34.69390488	2.52941179
34.69805908	2.70588231
34.70214081	2.68627453
34.70214081	2.50980401
34.70613861	2.35294127
34.71026611	2.31372547
34.71444321	2.45098042
34.71850586	2.70588231
34.72239685	2.54901958
34.72658539	2.41176462
34.73076248	2.33333325
34.73076248	2.39215684
34.73488235	2.64705873
34.73886490	2.74509811
34.74314117	2.60784316
34.74714661	2.33333325
34.75125885	2.37254906
34.75542068	2.56862736
34.75943375	2.70588231
34.75943375	2.64705873
34.76354599	2.49019599
34.76764297	2.37254906
34.77176285	2.35294127
34.77585220	2.68627453
34.77988815	2.72549009
34.78401184	2.54901958
34.78813934	2.41176462
34.78813934	2.37254906
34.79216003	2.47058821
34.79624939	2.68627453
34.80036163	2.76470590
34.80036163	2.62745094
34.80451584	2.45098042
34.80859375	2.35294127
34.81261826	2.41176462
34.81675339	2.60784316
34.81675339	2.76470590
34.82086563	2.66666675
34.82506180	2.49019599
34.82919693	2.39215684
34.82919693	2.39215684
34.83315277	2.56862736
34.83725739	2.72549009
34.84138870	2.70588231
34.84557343	2.52941179
34.84557343	2.37254906
34.84952164	2.35294127
34.85363388	2.49019599
34.85777283	2.66666675
34.85777283	2.72549009
34.86191559	2.56862736
34.86587143	2.41176462
34.87014008	2.35294127
34.87410736	2.43137264
34.87410736	2.62745094
34.87834167	2.74509811
34.88232422	2.62745094
34.88643646	2.43137264
34.88643646	2.33333325
34.89056396	2.35294127
34.89468384	2.56862736
34.89882278	2.70588231
34.90277100	2.66666675
34.90277100	2.45098042
34.90691376	2.35294127
34.91101074	2.33333325
34.91518784	2.49019599
34.91518784	2.66666675
34.91912842	2.70588231
34.92325974	2.50980401
34.92745209	2.37254906
34.93157196	2.29411769
34.93157196	2.43137264
34.93556213	2.62745094
34.93967438	2.70588231
34.94379425	2.58823538
34.94379425	2.41176462
34.94794846	2.33333325
34.95207596	2.43137264
34.95616531	2.64705873
34.96020508	2.76470590
34.96020508	2.70588231
34.96430969	2.50980401
34.96839523	2.41176462
34.97251511	2.45098042
34.97251511	2.64705873
34.97658920	2.82352948
34.98063278	2.80392146
34.98475647	2.60784316
34.98888397	2.47058821
34.98888397	2.45098042
34.99288940	2.60784316
34.99699402	2.80392146
35.00114059	2.84313726
35.00114059	2.66666675
35.00526810	2.52941179
35.00925827	2.41176462
35.01337051	2.50980401
35.01743317	2.70588231
35.01743317	2.82352948
35.02161789	2.70588231
35.02559280	2.50980401
35.02974701	2.39215684
35.02974701	2.43137264
35.03387451	2.60784316
35.03799438	2.78431368
35.04213333	2.74509811
35.04614639	2.41176462
35.05025864	2.37254906
35.05450058	2.52941179
35.05856323	2.70588231
35.05856323	2.70588231
35.06257248	2.50980401
35.06666565	2.37254906
35.07094193	2.33333325
35.07491684	2.66666675
35.07890701	2.74509811
35.08314896	2.58823538
35.08713913	2.41176462
35.08713913	2.33333325
35.09129333	2.41176462
35.09542084	2.64705873
35.09937668	2.80392146
35.10350800	2.54901958
35.10765839	2.45098042
35.11186218	2.45098042
35.11595154	2.64705873
35.11595154	2.78431368
35.11991501	2.76470590
35.12406921	2.56862736
35.12821198	2.41176462
35.13232422	2.60784316
35.13629913	2.88235283
35.14041138	2.98039222
35.14454651	2.84313726
35.14454651	2.68627453
35.14865112	2.64705873
35.15263367	2.74509811
35.15676117	2.96078420
35.16095734	2.98039222
35.16501236	2.76470590
35.16913223	2.66666675
35.17313004	2.64705873
35.17313004	2.82352948
35.17728424	2.92156863
35.18136978	2.80392146
35.18551636	2.52941179
35.18551636	2.39215684
35.18949127	2.39215684
35.19363403	2.58823538
35.19772339	2.80392146
35.20180893	2.84313726
35.20180893	2.66666675
35.20586395	2.52941179
35.21010971	2.45098042
35.21411514	2.56862736
35.21411514	2.76470590
35.21826172	2.84313726
35.22226715	2.70588231
35.22638702	2.50980401
35.23048401	2.41176462
35.23048401	2.47058821
35.23461914	2.64705873
35.23876572	2.78431368
35.24277878	2.68627453
35.24277878	2.49019599
35.24694061	2.35294127
35.25106812	2.35294127
35.25537872	2.54901958
35.25926971	2.70588231
35.25926971	2.70588231
35.26329041	2.52941179
35.26737976	2.39215684
35.27150726	2.35294127
35.27150726	2.45098042
35.27568436	2.64705873
35.27965164	2.66666675
35.28375626	2.50980401
35.28787613	2.35294127
35.28787613	2.31372547
35.29212570	2.39215684
35.29608536	2.60784316
35.30012131	2.68627453
35.30012131	2.54901958
35.30424500	2.35294127
35.30834579	2.27450991
35.31240082	2.31372547
35.31649780	2.52941179
35.31649780	2.66666675
35.32061768	2.60784316
35.32478714	2.39215684
35.32892609	2.25490189
35.32892609	2.25490189
35.33294678	2.43137264
35.33716583	2.60784316
35.34114075	2.60784316
35.34534073	2.45098042
35.34534073	2.31372547
35.34928131	2.27450991
35.35337830	2.39215684
35.35743332	2.58823538
35.35743332	2.68627453
35.36162186	2.52941179
35.36576462	2.37254906
35.36973953	2.29411769
35.37387466	2.37254906
35.37387466	2.56862736
35.37804413	2.72549009
35.38214111	2.64705873
35.38614655	2.47058821
35.38614655	2.37254906
35.39026642	2.41176462
35.39444351	2.64705873
35.39854050	2.82352948
35.40264511	2.80392146
35.40264511	2.58823538
35.40662766	2.45098042
35.41075516	2.37254906
35.41491699	2.47058821
35.41491699	2.58823538
35.41906357	2.58823538
35.42314148	2.43137264
35.42713928	2.31372547
35.43119431	2.47058821
35.43537903	2.70588231
35.43935394	2.80392146
35.44350815	2.66666675
35.44350815	2.49019599
35.44763565	2.41176462
35.45175552	2.41176462
35.45614624	2.58823538
35.45987320	2.62745094
35.46405411	2.41176462
35.46813965	2.25490189
35.47225189	2.25490189
35.47225189	2.41176462
35.47630692	2.60784316
35.48032379	2.62745094
35.48450851	2.45098042
35.48860550	2.27450991
35.49262619	2.41176462
35.49673080	2.64705873
35.50087738	2.74509811
35.50087738	2.60784316
35.50500488	2.47058821
35.50907516	2.37254906
35.51308823	2.47058821
35.51717758	2.78431368
35.52136230	2.68627453
35.52543640	2.50980401
35.52948380	2.41176462
35.52948380	2.43137264
35.53363419	2.60784316
35.53775787	2.76470590
35.54187012	2.74509811
35.54601288	2.39215684
35.55010986	2.33333325
35.55411530	2.49019599
35.55821228	2.68627453
35.55821228	2.72549009
35.56238174	2.52941179
35.56636429	2.33333325
35.57047653	2.23529410
35.57047653	2.27450991
35.57469559	2.47058821
35.57878876	2.56862736
35.58275604	2.47058821
35.58687592	2.29411769
35.58687592	2.27450991
35.59101868	2.35294127
35.59507370	2.62745094
35.59920502	2.76470590
35.59920502	2.68627453
35.60321045	2.47058821
35.60737991	2.29411769
35.61153412	2.27450991
35.61563110	2.43137264
35.61563110	2.60784316
35.61960983	2.60784316
35.62375641	2.45098042
35.62794113	2.31372547
35.62794113	2.29411769
35.63207245	2.39215684
35.63619232	2.60784316
35.64050674	2.66666675
35.64425278	2.54901958
35.64425278	2.41176462
35.64842987	2.35294127
35.65251923	2.43137264
35.65650558	2.64705873
35.65650558	2.78431368
35.66062927	2.66666675
35.66481400	2.47058821
35.66888428	2.37254906
35.67287445	2.39215684
35.67287445	2.58823538
35.67718506	2.76470590
35.68119049	2.72549009
35.68530273	2.54901958
35.68530273	2.39215684
35.68930054	2.35294127
35.69343567	2.49019599
35.69753265	2.66666675
35.70168686	2.70588231
35.70168686	2.52941179
35.70575714	2.37254906
35.70973206	2.31372547
35.71387482	2.37254906
35.71387482	2.58823538
35.71806335	2.66666675
35.72214127	2.54901958
35.72607422	2.39215684
35.73023605	2.27450991
35.73023605	2.31372547
35.73436356	2.50980401
35.73851013	2.64705873
35.74263000	2.60784316
35.74263000	2.41176462
35.74660110	2.29411769
35.75075531	2.25490189
35.75488663	2.45098042
35.75903702	2.64705873
35.75903702	2.66666675
35.76318359	2.47058821
35.76712418	2.35294127
35.77125168	2.31372547
35.77125168	2.43137264
35.77542114	2.62745094
35.77929688	2.70588231
35.78347397	2.58823538
35.78762054	2.41176462
35.78762054	2.31372547
35.79171753	2.39215684
35.79586792	2.58823538
35.79984283	2.72549009
35.79984283	2.64705873
35.80399704	2.47058821
35.80807495	2.37254906
35.81226349	2.39215684
35.81626129	2.76470590
35.82038116	2.72549009
35.82451630	2.54901958
35.82861328	2.39215684
35.82861328	2.37254906
35.83254623	2.50980401
35.83672333	2.70588231
35.84087753	2.76470590
35.84498978	2.43137264
35.84911728	2.39215684
35.85310745	2.49019599
35.85721207	2.66666675
35.85721207	2.76470590
35.86139679	2.62745094
35.86548615	2.43137264
35.86962891	2.31372547
35.87368393	2.58823538
35.87783051	2.70588231
35.88194275	2.60784316
35.88604736	2.37254906
35.88604736	2.21568632
35.89019394	2.17647052
35.89419937	2.33333325
35.89827728	2.47058821
35.90242386	2.19607854
35.90638733	2.01960778
35.91049957	1.94117641
35.91466904	2.01960778
35.91466904	2.19607854
35.91876602	2.25490189
35.92274857	2.07843137
35.92682648	1.88235295
35.93098068	1.84313726
35.93512726	2.07843137
35.93925476	2.21568632
35.94326019	2.13725495
35.94326019	1.96078432
35.94738770	1.86274505
35.95151901	1.90196073
35.95563126	2.09803915
35.95563126	2.31372547
35.95964432	2.31372547
35.96379852	2.15686274
35.96787643	2.07843137
35.97200775	2.11764717
35.97200775	2.31372547
35.97612762	2.52941179
35.98018265	2.62745094
35.98426056	2.50980401
35.98426056	2.39215684
35.98837280	2.37254906
35.99261856	2.54901958
35.99645233	2.80392146
36.00060272	2.94117641
36.00060272	2.86274505
36.00475693	2.68627453
36.00886917	2.58823538
36.01300049	2.66666675
36.01300049	2.90196085
36.01713562	3.05882359
36.02111816	3.00000000
36.02522278	2.84313726
36.02939224	2.70588231
36.02939224	2.72549009
36.03342819	2.90196085
36.03750229	3.11764717
36.04153061	3.11764717
36.04153061	2.94117641
36.04577637	2.80392146
36.04969025	2.78431368
36.05390167	2.90196085
36.05794907	3.09803915
36.05794907	3.15686274
36.06216812	3.00000000
36.06613922	2.84313726
36.07025146	2.76470590
36.07025146	2.82352948
36.07437134	3.03921580
36.07853317	3.13725495
36.08251572	3.05882359
36.08663559	2.86274505
36.08663559	2.74509811
36.09075546	2.76470590
36.09507370	2.94117641
36.09900665	3.09803915
36.09900665	3.05882359
36.10307693	2.86274505
36.10705948	2.72549009
36.11124420	2.70588231
36.11530685	2.86274505
36.11530685	3.03921580
36.11938095	3.03921580
36.12350845	2.84313726
36.12765503	2.68627453
36.12765503	2.60784316
36.13174057	2.70588231
36.13588715	2.90196085
36.13986969	2.96078420
36.14415359	2.84313726
36.14415359	2.66666675
36.14811707	2.56862736
36.15226364	2.60784316
36.15639114	2.80392146
36.15639114	2.96078420
36.16034698	2.88235283
36.16447830	2.70588231
36.16856384	2.56862736
36.17282486	2.56862736
36.17282486	2.74509811
36.17671585	2.92156863
36.18087006	2.90196085
36.18500519	2.72549009
36.18500519	2.56862736
36.18913651	2.50980401
36.19314194	2.62745094
36.19725418	2.82352948
36.20138931	2.68627453
36.20550919	2.50980401
36.20949173	2.41176462
36.21358109	2.49019599
36.21358109	2.70588231
36.21773148	2.82352948
36.22181320	2.74509811
36.22603989	2.54901958
36.23006058	2.49019599
36.23410797	2.66666675
36.23826218	2.84313726
36.24238205	2.84313726
36.24238205	2.66666675
36.24638748	2.54901958
36.25048447	2.54901958
36.25461197	2.72549009
36.25878143	2.98039222
36.26273346	2.82352948
36.26684570	2.66666675
36.27109528	2.60784316
36.27109528	2.70588231
36.27511978	2.92156863
36.27925491	3.00000000
36.28320313	2.86274505
36.28736496	2.52941179
36.29147720	2.58823538
36.29558945	2.76470590
36.29971695	2.88235283
36.29971695	2.78431368
36.30371475	2.56862736
36.30785370	2.43137264
36.31200790	2.39215684
36.31609344	2.76470590
36.32009125	2.78431368
36.32422256	2.60784316
36.32835007	2.49019599
36.32835007	2.47058821
36.33243561	2.62745094
36.33644485	2.86274505
36.34056473	2.94117641
36.34056473	2.78431368
36.34473419	2.60784316
36.34886932	2.52941179
36.35280228	2.60784316
36.35709381	2.84313726
36.35709381	2.98039222
36.36109161	2.88235283
36.36524582	2.66666675
36.36938477	2.56862736
36.36938477	2.56862736
36.37343979	2.78431368
36.37751007	2.92156863
36.38162994	2.90196085
36.38574219	2.72549009
36.38574219	2.58823538
36.38974762	2.58823538
36.39387894	2.78431368
36.39794922	2.96078420
36.39794922	3.01960778
36.40208435	2.86274505
36.40609360	2.70588231
36.41020584	2.66666675
36.41434860	2.76470590
36.41434860	2.98039222
36.41851044	3.09803915
36.42262268	2.98039222
36.42666245	2.78431368
36.42666245	2.68627453
36.43071747	2.68627453
36.43487930	2.88235283
36.43899918	2.98039222
36.44319153	2.88235283
36.44319153	2.64705873
36.44715118	2.49019599
36.45127106	2.45098042
36.45543289	2.58823538
36.45543289	2.70588231
36.45939636	2.68627453
36.46354294	2.49019599
36.46764755	2.39215684
36.47174072	2.37254906
36.47174072	2.52941179
36.47587204	2.74509811
36.47991943	2.82352948
36.48417664	2.66666675
36.48417664	2.52941179
36.48813629	2.47058821
36.49228668	2.54901958
36.49622726	2.74509811
36.50035858	2.86274505
36.50035858	2.74509811
36.50448608	2.54901958
36.50861359	2.43137264
36.51276016	2.47058821
36.51276016	2.66666675
36.51672363	2.84313726
36.52087784	2.82352948
36.52495956	2.62745094
36.52910995	2.47058821
36.52910995	2.47058821
36.53316498	2.62745094
36.53725433	2.82352948
36.54130936	2.86274505
36.54130936	2.68627453
36.54549408	2.54901958
36.54956818	2.49019599
36.55362320	2.60784316
36.55774307	2.94117641
36.56186295	2.80392146
36.56600952	2.62745094
36.57012939	2.52941179
36.57012939	2.58823538
36.57413483	2.80392146
36.57828903	2.98039222
36.58237457	2.92156863
36.58638000	2.64705873
36.59047699	2.64705873
36.59463882	2.86274505
36.59879303	3.01960778
36.59879303	3.03921580
36.60279846	2.86274505
36.60688400	2.70588231
36.61111450	2.66666675
36.61510086	3.01960778
36.61919785	3.09803915
36.62322998	2.92156863
36.62755585	2.74509811
36.62755585	2.66666675
36.63146210	2.74509811
36.63563156	2.94117641
36.63975143	3.05882359
36.64376450	2.74509811
36.64783096	2.64705873
36.65200806	2.66666675
36.65612793	2.88235283
36.65612793	3.01960778
36.66009140	3.00000000
36.66423798	2.80392146
36.66830826	2.66666675
36.67246246	2.82352948
36.67646790	3.01960778
36.68059921	3.05882359
36.68475723	2.86274505
36.68475723	2.70588231
36.68887329	2.68627453
36.69288635	2.80392146
36.69712830	3.00000000
36.70108414	2.98039222
36.70524597	2.78431368
36.70935822	2.70588231
36.71342468	2.74509811
36.71342468	2.96078420
36.71752548	3.07843137
36.72168732	3.00000000
36.72581100	2.80392146
36.72581100	2.66666675
36.72974777	2.68627453
36.73392868	2.86274505
36.73801422	3.03921580
36.74211884	3.03921580
36.74211884	2.82352948
36.74611664	2.68627453
36.75030136	2.64705873
36.75437546	2.76470590
36.75437546	2.96078420
36.75847244	3.01960778
36.76266479	2.86274505
36.76662827	2.66666675
36.77070236	2.58823538
36.77070236	2.68627453
36.77490234	2.88235283
36.77908325	3.00000000
36.78314590	2.88235283
36.78314590	2.66666675
36.78715134	2.54901958
36.79125595	2.56862736
36.79542542	2.76470590
36.79951096	2.94117641
36.79951096	2.90196085
36.80353546	2.68627453
36.80763245	2.56862736
36.81174469	2.52941179
36.81174469	2.70588231
36.81586456	2.90196085
36.81992722	2.94117641
36.82411957	2.74509811
36.82810974	2.58823538
36.82810974	2.52941179
36.83222198	2.64705873
36.83624649	2.86274505
36.84036636	2.94117641
36.84036636	2.78431368
36.84453583	2.62745094
36.84862518	2.54901958
36.85275269	2.58823538
36.85675049	2.78431368
36.85675049	2.90196085
36.86092758	2.84313726
36.86503983	2.66666675
36.86912918	2.54901958
36.86912918	2.56862736
36.87310791	2.74509811
36.87724686	2.92156863
36.88130951	2.92156863
36.88547134	2.72549009
36.88547134	2.58823538
36.88951111	2.54901958
36.89362335	2.68627453
36.89769363	2.86274505
36.89769363	2.90196085
36.90187073	2.74509811
36.90600204	2.58823538
36.91010284	2.50980401
36.91407013	2.56862736
36.91407013	2.78431368
36.91822433	2.90196085
36.92230225	2.80392146
36.92651367	2.60784316
36.92651367	2.49019599
36.93043900	2.50980401
36.93464661	2.70588231
36.93875122	2.86274505
36.94287109	2.62745094
36.94685364	2.50980401
36.95100021	2.47058821
36.95512009	2.62745094
36.95512009	2.80392146
36.95929718	2.84313726
36.96323013	2.66666675
36.96736526	2.50980401
36.97147751	2.54901958
36.97584534	2.72549009
36.97962952	2.84313726
36.98377609	2.70588231
36.98377609	2.50980401
36.98784637	2.41176462
36.99199295	2.49019599
36.99615479	2.70588231
37.00013351	2.78431368
37.00423050	2.58823538
37.00833511	2.47058821
37.01256943	2.49019599
37.01256943	2.66666675
37.01642990	2.82352948
37.02059174	2.82352948
37.02471161	2.64705873
37.02882385	2.49019599
37.03299332	2.64705873
37.03712082	2.88235283
37.04111862	2.94117641
37.04111862	2.76470590
37.04537964	2.58823538
37.04937744	2.52941179
37.05340576	2.60784316
37.05751038	2.96078420
37.06162262	2.82352948
37.06576920	2.64705873
37.06993866	2.54901958
37.06993866	2.58823538
37.07387161	2.78431368
37.07794189	2.92156863
37.08215332	2.90196085
37.08215332	2.68627453
37.08625031	2.54901958
37.09022903	2.50980401
37.09433365	2.70588231
37.09848785	2.88235283
37.09848785	2.90196085
37.10262299	2.72549009
37.10665512	2.58823538
37.11081696	2.52941179
37.11081696	2.64705873
37.11486435	2.84313726
37.11904907	2.94117641
37.12313843	2.80392146
37.12713623	2.62745094
37.12713623	2.50980401
37.13116455	2.58823538
37.13533401	2.80392146
37.13948822	2.94117641
37.13948822	2.88235283
37.14349365	2.68627453
37.14760590	2.54901958
37.15173721	2.56862736
37.15585709	2.74509811
37.15585709	2.94117641
37.16016388	2.92156863
37.16414642	2.76470590
37.16821671	2.62745094
37.16821671	2.58823538
37.17227173	2.72549009
37.17638397	2.94117641
37.18035889	3.00000000
37.18446350	2.84313726
37.18446350	2.68627453
37.18856049	2.60784316
37.19271851	2.70588231
37.19673538	2.90196085
37.19673538	3.01960778
37.20086288	2.88235283
37.20495987	2.68627453
37.20915985	2.56862736
37.21324921	2.62745094
37.21324921	2.80392146
37.21721268	2.94117641
37.22131729	2.88235283
37.22548676	2.68627453
37.22548676	2.54901958
37.22953415	2.52941179
37.23358154	2.68627453
37.23762894	2.86274505
37.24189758	2.90196085
37.24189758	2.72549009
37.24588013	2.56862736
37.25004959	2.50980401
37.25402069	2.62745094
37.25402069	2.82352948
37.25818253	2.90196085
37.26241684	2.76470590
37.26639175	2.56862736
37.27050400	2.47058821
37.27050400	2.52941179
37.27460098	2.72549009
37.27868652	2.86274505
37.28276825	2.78431368
37.28276825	2.56862736
37.28676605	2.43137264
37.29102325	2.47058821
37.29501343	2.66666675
37.29917526	2.82352948
37.30318832	2.64705873
37.30724335	2.50980401
37.31145477	2.47058821
37.31145477	2.62745094
37.31551743	2.80392146
37.31970596	2.88235283
37.32363510	2.70588231
37.32780457	2.49019599
37.33192825	2.60784316
37.33605576	2.80392146
37.34005356	2.92156863
37.34005356	2.80392146
37.34420013	2.58823538
37.34836960	2.52941179
37.35241699	2.54901958
37.35640335	2.92156863
37.36057281	2.90196085
37.36471176	2.68627453
37.36875916	2.56862736
37.36875916	2.56862736
37.37295914	2.72549009
37.37703323	2.90196085
37.38103104	2.92156863
37.38514328	2.58823538
37.38926315	2.54901958
37.39331818	2.66666675
37.39739609	2.86274505
37.39739609	2.94117641
37.40151978	2.80392146
37.40563965	2.62745094
37.40979385	2.54901958
37.41376495	2.86274505
37.41793442	2.98039222
37.42202377	2.92156863
37.42620850	2.72549009
37.42620850	2.62745094
37.43017197	2.62745094
37.43432617	2.82352948
37.43838882	3.00000000
37.43838882	3.00000000
37.44255066	2.80392146
37.44654083	2.64705873
37.45066071	2.62745094
37.45478058	2.76470590
37.45478058	2.96078420
37.45891953	3.03921580
37.46302414	2.84313726
37.46705246	2.68627453
37.46705246	2.58823538
37.47119904	2.68627453
37.47528839	2.90196085
37.47946548	3.03921580
37.48357010	2.94117641
37.48357010	2.76470590
37.48759079	2.66666675
37.49174500	2.72549009
37.49583435	2.92156863
37.49583435	3.05882359
37.49979019	3.00000000
37.50403976	2.78431368
37.50805664	2.64705873
37.51220703	2.60784316
37.51220703	2.78431368
37.51629639	2.98039222
37.52028656	3.01960778
37.52445602	2.84313726
37.52445602	2.68627453
37.52859879	2.60784316
37.53268814	2.72549009
37.53668594	2.94117641
37.54080582	3.01960778
37.54080582	2.86274505
37.54494476	2.66666675
37.54907990	2.58823538
37.55319214	2.66666675
37.55319214	2.88235283
37.55727386	3.01960778
37.56132889	2.94117641
37.56546402	2.72549009
37.56955338	2.60784316
37.56955338	2.62745094
37.57355118	2.82352948
37.57770157	2.96078420
37.58179855	2.98039222
37.58179855	2.78431368
37.58591080	2.66666675
37.59004211	2.64705873
37.59407806	2.80392146
37.59816742	3.01960778
37.59816742	3.07843137
37.60235977	2.92156863
37.60644150	2.74509811
37.61051178	2.68627453
37.61051178	2.78431368
37.61455154	3.00000000
37.61867142	3.11764717
37.62281036	3.00000000
37.62686539	2.80392146
37.62686539	2.70588231
37.63106537	2.74509811
37.63505554	2.94117641
37.63917542	3.09803915
37.63917542	3.05882359
37.64323807	2.84313726
37.64730453	2.70588231
37.65140533	2.68627453
37.65555191	2.84313726
37.65555191	3.00000000
37.65967941	3.00000000
37.66368484	2.82352948
37.66784668	2.64705873
37.66784668	2.60784316
37.67199326	2.70588231
37.67605591	2.88235283
37.68021011	2.96078420
37.68420029	2.58823538
37.68832016	2.50980401
37.69252396	2.56862736
37.69659424	2.76470590
37.69659424	2.86274505
37.70057678	2.76470590
37.70469666	2.56862736
37.70888138	2.45098042
37.71295166	2.68627453
37.71706390	2.84313726
37.72104645	2.84313726
37.72517395	2.64705873
37.72517395	2.49019599
37.72929001	2.47058821
37.73334503	2.60784316
37.73741531	2.82352948
37.74160767	2.68627453
37.74571228	2.50980401
37.74980164	2.45098042
37.75382996	2.54901958
37.75382996	2.76470590
37.75790405	2.88235283
37.76211166	2.78431368
37.76615906	2.58823538
37.77019882	2.54901958
37.77432632	2.74509811
37.77848816	2.92156863
37.78256989	2.88235283
37.78256989	2.68627453
37.78657532	2.56862736
37.79069519	2.56862736
37.79482269	2.74509811
37.79482269	2.90196085
37.79894638	2.92156863
37.80310440	2.72549009
37.80704498	2.56862736
37.81118393	2.54901958
37.81118393	2.66666675
37.81528854	2.88235283
37.81943130	2.98039222
37.82357788	2.82352948
37.82357788	2.64705873
37.82761765	2.54901958
37.83168030	2.62745094
37.83578491	2.84313726
37.83994675	2.98039222
37.83994675	2.90196085
37.84411621	2.70588231
37.84807205	2.58823538
37.85219193	2.60784316
37.85219193	2.80392146
37.85632324	2.96078420
37.86032867	2.94117641
37.86442184	2.74509811
37.86859131	2.60784316
37.86859131	2.56862736
37.87278748	2.70588231
37.87668610	2.88235283
37.88085556	2.92156863
37.88085556	2.74509811
37.88495255	2.56862736
37.88907242	2.52941179
37.89312744	2.62745094
37.89720917	2.82352948
37.89720917	2.94117641
37.90132141	2.82352948
37.90544128	2.62745094
37.90962601	2.54901958
37.90962601	2.58823538
37.91357422	2.78431368
37.91770554	2.94117641
37.92181778	2.92156863
37.92593765	2.70588231
37.92593765	2.56862736
37.93006516	2.56862736
37.93408966	2.74509811
37.93819427	2.94117641
37.93819427	2.98039222
37.94235229	2.78431368
37.94641876	2.62745094
37.95045471	2.62745094
37.95451736	2.72549009
37.95451736	2.92156863
37.95877075	3.00000000
37.96283340	2.86274505
37.96693039	2.68627453
37.96693039	2.60784316
37.97110748	2.70588231
37.97504807	2.90196085
37.97923279	3.03921580
37.98336411	2.94117641
37.98336411	2.74509811
37.98731995	2.58823538
37.99145508	2.56862736
37.99558640	2.74509811
37.99558640	2.90196085
37.99974823	2.84313726
38.00370407	2.58823538
38.00776672	2.39215684
38.01194382	2.33333325
38.01194382	2.45098042
38.01601791	2.58823538
38.02008820	2.56862736
38.02423477	2.37254906
38.02423477	2.17647052
38.02835464	2.11764717
38.03253937	2.21568632
38.03666687	2.43137264
38.04065704	2.47058821
38.04480362	2.31372547
38.04891586	2.27450991
38.05302811	2.35294127
38.05302811	2.60784316
38.05716324	2.78431368
38.06113815	2.78431368
38.06525803	2.60784316
38.06940460	2.52941179
38.07336807	2.72549009
38.07747269	2.94117641
38.08160019	2.98039222
38.08160019	2.82352948
38.08571243	2.66666675
38.08978653	2.62745094
38.09384155	2.72549009
38.09811783	3.03921580
38.10207367	2.88235283
38.10620880	2.72549009
38.11036301	2.64705873
38.11036301	2.70588231
38.11433792	2.90196085
38.11843109	3.01960778
38.12256241	2.92156863
38.12668228	2.58823538
38.13072968	2.60784316
38.13478470	2.80392146
38.13897705	2.98039222
38.13897705	2.96078420
38.14310837	2.76470590
38.14718628	2.64705873
38.15119171	2.60784316
38.15533829	2.94117641
38.15946579	2.98039222
38.16344833	2.78431368
38.16759109	2.60784316
38.16759109	2.54901958
38.17172241	2.60784316
38.17585754	2.82352948
38.17993927	2.94117641
38.17993927	2.78431368
38.18408203	2.56862736
38.18803024	2.45098042
38.19224930	2.49019599
38.19628906	2.70588231
38.19628906	2.86274505
38.20037079	2.76470590
38.20446396	2.58823538
38.20859528	2.49019599
38.20859528	2.47058821
38.21274567	2.64705873
38.21671295	2.82352948
38.22084045	2.82352948
38.22507477	2.62745094
38.22507477	2.49019599
38.22909164	2.43137264
38.23328400	2.56862736
38.23728943	2.76470590
38.23728943	2.84313726
38.24139404	2.68627453
38.24551392	2.52941179
38.24960327	2.45098042
38.25376511	2.52941179
38.25376511	2.72549009
38.25772095	2.86274505
38.26184082	2.76470590
38.26597214	2.56862736
38.26597214	2.45098042
38.27015686	2.47058821
38.27409744	2.66666675
38.27825165	2.84313726
38.28237152	2.84313726
38.28237152	2.62745094
38.28647614	2.49019599
38.29052353	2.49019599
38.29466629	2.62745094
38.29466629	2.82352948
38.29877090	2.84313726
38.30284119	2.68627453
38.30683136	2.50980401
38.31114960	2.47058821
38.31114960	2.56862736
38.31510544	2.76470590
38.31921768	2.90196085
38.32338715	2.76470590
38.32338715	2.56862736
38.32741165	2.47058821
38.33148193	2.50980401
38.33560944	2.70588231
38.33977127	2.84313726
38.33977127	2.78431368
38.34376907	2.56862736
38.34798050	2.43137264
38.35200119	2.43137264
38.35200119	2.58823538
38.35613251	2.78431368
38.36011505	2.76470590
38.36436462	2.56862736
38.36836243	2.39215684
38.36836243	2.35294127
38.37250900	2.43137264
38.37662888	2.64705873
38.38059235	2.70588231
38.38059235	2.54901958
38.38478088	2.39215684
38.38880157	2.29411769
38.39298630	2.41176462
38.39707565	2.62745094
38.39707565	2.76470590
38.40113831	2.68627453
38.40518570	2.49019599
38.40935516	2.37254906
38.40935516	2.41176462
38.41347504	2.58823538
38.41744995	2.76470590
38.42160416	2.72549009
38.42570496	2.41176462
38.42985153	2.41176462
38.43379974	2.54901958
38.43807602	2.76470590
38.43807602	2.78431368
38.44202423	2.60784316
38.44622040	2.43137264
38.45027542	2.39215684
38.45434570	2.72549009
38.45845795	2.84313726
38.46261215	2.70588231
38.46671677	2.52941179
38.46671677	2.41176462
38.47071457	2.45098042
38.47480774	2.64705873
38.47911835	2.80392146
38.48312378	2.52941179
38.48714828	2.43137264
38.49124146	2.41176462
38.49539566	2.62745094
38.49539566	2.78431368
38.49953461	2.80392146
38.50349808	2.60784316
38.50765991	2.47058821
38.51172256	2.56862736
38.51584244	2.76470590
38.51996994	2.82352948
38.52415848	2.64705873
38.52415848	2.45098042
38.52811432	2.37254906
38.53225327	2.47058821
38.53628922	2.66666675
38.54034424	2.70588231
38.54449081	2.50980401
38.54853821	2.41176462
38.55270767	2.47058821
38.55270767	2.66666675
38.55672836	2.82352948
38.56083298	2.80392146
38.56512451	2.60784316
38.56512451	2.45098042
38.56913376	2.45098042
38.57323456	2.62745094
38.57722473	2.80392146
38.58134460	2.84313726
38.58134460	2.66666675
38.58550644	2.50980401
38.58965302	2.45098042
38.59375000	2.58823538
38.59375000	2.78431368
38.59771347	2.86274505
38.60194778	2.72549009
38.60597992	2.54901958
38.61010742	2.47058821
38.61010742	2.52941179
38.61408234	2.70588231
38.61817932	2.84313726
38.62232208	2.76470590
38.62232208	2.58823538
38.62644196	2.45098042
38.63045883	2.45098042
38.63455200	2.64705873
38.63870621	2.80392146
38.63870621	2.82352948
38.64286804	2.60784316
38.64684296	2.49019599
38.65110016	2.45098042
38.65110016	2.54901958
38.65509796	2.74509811
38.65921021	2.82352948
38.66335678	2.64705873
38.66740417	2.45098042
38.66740417	2.39215684
38.67152405	2.47058821
38.67565918	2.66666675
38.67991257	2.78431368
38.67991257	2.68627453
38.68373108	2.49019599
38.68788147	2.39215684
38.69197845	2.41176462
38.69609070	2.62745094
38.69609070	2.76470590
38.70013046	2.74509811
38.70424271	2.52941179
38.70831299	2.41176462
38.70831299	2.37254906
38.71248245	2.54901958
38.71662903	2.74509811
38.72057724	2.80392146
38.72467422	2.62745094
38.72467422	2.47058821
38.72886658	2.43137264
38.73303604	2.54901958
38.73707581	2.74509811
38.73707581	2.82352948
38.74108124	2.68627453
38.74522018	2.50980401
38.74956894	2.39215684
38.75350952	2.45098042
38.75350952	2.66666675
38.75753021	2.82352948
38.76161957	2.76470590
38.76572418	2.54901958
38.76572418	2.43137264
38.76989365	2.43137264
38.77385712	2.60784316
38.77811050	2.80392146
38.78202438	2.62745094
38.78619385	2.49019599
38.79022598	2.45098042
38.79434586	2.58823538
38.79434586	2.76470590
38.79845810	2.84313726
38.80284119	2.66666675
38.80673981	2.50980401
38.81083679	2.52941179
38.81485748	2.72549009
38.81897354	2.84313726
38.82313156	2.76470590
38.82313156	2.56862736
38.82714081	2.45098042
38.83121109	2.49019599
38.83533859	2.68627453
38.83950043	2.78431368
38.84350586	2.60784316
38.84762573	2.47058821
38.85173798	2.45098042
38.85173798	2.60784316
38.85587692	2.80392146
38.85998154	2.82352948
38.86415863	2.66666675
38.86812210	2.45098042
38.87226105	2.54901958
38.87636566	2.76470590
38.88056564	2.88235283
38.88056564	2.74509811
38.88441849	2.54901958
38.88865280	2.45098042
38.89274979	2.49019599
38.89683533	2.82352948
38.90089798	2.76470590
38.90490723	2.56862736
38.90907669	2.43137264
38.90907669	2.45098042
38.91321182	2.62745094
38.91720200	2.80392146
38.92131424	2.78431368
38.92131424	2.58823538
38.92543411	2.45098042
38.92958832	2.43137264
38.93397903	2.56862736
38.93776321	2.78431368
38.93776321	2.84313726
38.94190979	2.64705873
38.94598007	2.47058821
38.95008469	2.41176462
38.95008469	2.49019599
38.95409012	2.72549009
38.95827484	2.82352948
38.96237183	2.70588231
38.96648407	2.50980401
38.96648407	2.43137264
38.97046661	2.47058821
38.97468567	2.66666675
38.97879028	2.82352948
38.97879028	2.78431368
38.98290253	2.58823538
38.98688126	2.45098042
38.99118423	2.45098042
38.99515533	2.60784316
38.99515533	2.82352948
38.99927902	2.84313726
39.00354385	2.66666675
39.00747681	2.50980401
39.00747681	2.49019599
39.01153183	2.60784316
39.01561356	2.78431368
39.01971817	2.90196085
39.02388763	2.76470590
39.02388763	2.58823538
39.02788544	2.47058821
39.03196335	2.52941179
39.03609085	2.74509811
39.03609085	2.86274505
39.04024506	2.76470590
39.04429245	2.58823538
39.04840469	2.47058821
39.05252457	2.49019599
39.05252457	2.64705873
39.05665588	2.80392146
39.06068420	2.82352948
39.06475449	2.62745094
39.06475449	2.47058821
39.06886673	2.43137264
39.07302094	2.58823538
39.07711792	2.80392146
39.08120728	2.84313726
39.08120728	2.68627453
39.08519363	2.52941179
39.08939743	2.45098042
39.09348679	2.54901958
39.09348679	2.76470590
39.09745789	2.88235283
39.10162735	2.76470590
39.10565186	2.56862736
39.10984421	2.47058821
39.10984421	2.49019599
39.11383438	2.68627453
39.11807632	2.84313726
39.12208557	2.80392146
39.12208557	2.62745094
39.12619781	2.45098042
39.13034058	2.45098042
39.13467407	2.62745094
39.13847733	2.80392146
39.13847733	2.84313726
39.14263916	2.64705873
39.14670944	2.50980401
39.15083694	2.47058821
39.15083694	2.56862736
39.15484238	2.76470590
39.15903854	2.86274505
39.16311646	2.72549009
39.16717148	2.43137264
39.17125320	2.49019599
39.17552185	2.70588231
39.17954254	2.82352948
39.17954254	2.76470590
39.18365479	2.56862736
39.18761826	2.45098042
39.19175720	2.47058821
39.19588470	2.80392146
39.20003128	2.82352948
39.20425797	2.60784316
39.20807648	2.45098042
39.20807648	2.43137264
39.21221924	2.56862736
39.21635056	2.76470590
39.22046280	2.82352948
39.22454834	2.50980401
39.22863770	2.45098042
39.23271561	2.52941179
39.23677063	2.72549009
39.23677063	2.84313726
39.24079514	2.72549009
39.24512100	2.56862736
39.24909210	2.43137264
39.25321960	2.66666675
39.25719452	2.82352948
39.26132202	2.76470590
39.26579666	2.56862736
39.26579666	2.45098042
39.26961517	2.43137264
39.27363586	2.60784316
39.27774048	2.80392146
39.28183746	2.66666675
39.28595734	2.47058821
39.29014206	2.43137264
39.29424667	2.52941179
39.29424667	2.74509811
39.29821014	2.80392146
39.30238342	2.68627453
39.30646133	2.49019599
39.30646133	2.41176462
39.31050110	2.47058821
39.31462860	2.66666675
39.31880569	2.78431368
39.32286072	2.70588231
39.32286072	2.50980401
39.32700729	2.37254906
39.33110428	2.39215684
39.33509064	2.56862736
39.33509064	2.74509811
39.33920288	2.76470590
39.34341431	2.54901958
39.34733963	2.41176462
39.35148621	2.37254906
39.35148621	2.52941179
39.35559845	2.72549009
39.35974884	2.76470590
39.36389542	2.58823538
39.36389542	2.43137264
39.36790085	2.35294127
39.37201309	2.43137264
39.37610245	2.64705873
39.38027191	2.78431368
39.38027191	2.68627453
39.38423538	2.49019599
39.38838959	2.39215684
39.39247894	2.45098042
39.39247894	2.66666675
39.39659119	2.82352948
39.40058899	2.76470590
39.40468216	2.54901958
39.40878677	2.43137264
39.40878677	2.41176462
39.41293335	2.58823538
39.41707611	2.76470590
39.42107391	2.78431368
39.42107391	2.58823538
39.42519760	2.45098042
39.42932510	2.39215684
39.43345261	2.50980401
39.43765640	2.72549009
39.43765640	2.82352948
39.44162750	2.68627453
39.44575882	2.50980401
39.44989395	2.43137264
39.44989395	2.49019599
39.45386887	2.70588231
39.45820999	2.82352948
39.46210861	2.72549009
39.46622849	2.52941179
39.46622849	2.43137264
39.47033310	2.45098042
39.47439575	2.62745094
39.47848511	2.80392146
39.47848511	2.78431368
39.48258209	2.58823538
39.48677444	2.43137264
39.49069977	2.43137264
39.49491882	2.54901958
39.49491882	2.72549009
39.49902344	2.78431368
39.50314331	2.62745094
39.50725555	2.45098042
39.50725555	2.39215684
39.51128387	2.49019599
39.51533890	2.72549009
39.51944351	2.86274505
39.52359009	2.72549009
39.52359009	2.54901958
39.52764511	2.45098042
39.53170776	2.49019599
39.53575516	2.68627453
39.53575516	2.82352948
39.53995132	2.74509811
39.54409409	2.56862736
39.54806137	2.45098042
39.55220413	2.58823538
39.55634308	2.78431368
39.56030655	2.80392146
39.56446838	2.62745094
39.56446838	2.47058821
39.56861496	2.41176462
39.57276535	2.52941179
39.57685471	2.74509811
39.58082581	2.68627453
39.58507156	2.49019599
39.58901978	2.41176462
39.59318161	2.49019599
39.59318161	2.70588231
39.59720993	2.84313726
39.60130692	2.72549009
39.60543823	2.52941179
39.60958099	2.43137264
39.61370850	2.60784316
39.61769104	2.76470590
39.62181091	2.76470590
39.62181091	2.54901958
39.62594223	2.41176462
39.63006973	2.37254906
39.63409042	2.49019599
39.63816452	2.68627453
39.64227676	2.49019599
39.64641190	2.29411769
39.65050888	2.25490189
39.65050888	2.35294127
39.65456390	2.60784316
39.65869141	2.78431368
39.66285324	2.66666675
39.66285324	2.49019599
39.66682816	2.39215684
39.67103958	2.45098042
39.67503738	2.64705873
39.67921448	2.78431368
39.67921448	2.72549009
39.68339920	2.50980401
39.68738937	2.41176462
39.69149399	2.41176462
39.69149399	2.56862736
39.69562912	2.74509811
39.69977570	2.78431368
39.70376587	2.60784316
39.70790100	2.45098042
39.70790100	2.43137264
39.71200562	2.50980401
39.71610260	2.70588231
39.72020721	2.80392146
39.72020721	2.64705873
39.72420502	2.49019599
39.72838974	2.39215684
39.73245239	2.43137264
39.73650742	2.64705873
39.73650742	2.78431368
39.74057007	2.70588231
39.74471664	2.50980401
39.74880600	2.41176462
39.74880600	2.45098042
39.75295639	2.64705873
39.75708771	2.82352948
39.76106644	2.84313726
39.76519012	2.64705873
39.76519012	2.50980401
39.76935959	2.50980401
39.77350998	2.68627453
39.77759171	2.92156863
39.77759171	3.00000000
39.78158188	2.82352948
39.78570175	2.64705873
39.78989410	2.60784316
39.79402542	2.70588231
39.79402542	2.92156863
39.79808807	3.03921580
39.80207825	2.92156863
39.80619812	2.70588231
39.80619812	2.62745094
39.81035995	2.62745094
39.81433105	2.82352948
39.81843567	2.96078420
39.82255554	2.86274505
39.82255554	2.62745094
39.82673645	2.50980401
39.83065033	2.50980401
39.83480453	2.68627453
39.83480453	2.86274505
39.83890915	2.86274505
39.84310913	2.62745094
39.84719849	2.41176462
39.85121155	2.31372547
39.85121155	2.37254906
39.85535049	2.52941179
39.85947800	2.56862736
39.86359787	2.39215684
39.86359787	2.21568632
39.86764526	2.17647052
39.87172699	2.21568632
39.87582016	2.49019599
39.87996674	2.60784316
39.87996674	2.50980401
39.88412857	2.27450991
39.88813400	2.15686274
39.89222336	2.19607854
39.89222336	2.43137264
39.89632797	2.64705873
39.90045547	2.62745094
39.90449524	2.39215684
39.90859604	2.17647052
39.91270828	2.35294127
39.91688156	2.56862736
39.92089462	2.58823538
39.92089462	2.35294127
39.92507935	2.13725495
39.92909241	2.05882359
39.93318939	2.19607854
39.93733597	2.64705873
39.94129181	2.49019599
39.94544601	2.31372547
39.94956589	2.21568632
39.94956589	2.33333325
39.95373535	2.58823538
39.95774078	2.76470590
39.96184540	2.68627453
39.96595001	2.31372547
39.97007751	2.33333325
39.97415924	2.56862736
39.97822952	2.78431368
39.97822952	2.80392146
39.98232651	2.54901958
39.98644638	2.37254906
39.99058151	2.35294127
39.99460602	2.80392146
39.99871063	2.88235283
40.00283051	2.68627453
40.00697708	2.49019599
40.00697708	2.41176462
40.01116943	2.52941179
40.01511765	2.78431368
40.01921463	2.92156863
40.02333450	2.56862736
40.02733994	2.45098042
40.03149414	2.49019599
40.03559113	2.72549009
40.03559113	2.92156863
40.03970337	2.86274505
40.04387283	2.64705873
40.04787827	2.49019599
40.04787827	2.47058821
40.05222702	2.64705873
40.05612564	2.88235283
40.06024170	2.92156863
40.06439209	2.72549009
40.06439209	2.54901958
40.06855392	2.50980401
40.07246399	2.62745094
40.07661438	2.88235283
40.07661438	3.00000000
40.08071899	2.86274505
40.08470154	2.68627453
40.08886337	2.60784316
40.09299850	2.70588231
40.09299850	2.94117641
40.09708023	3.11764717
40.10107040	3.05882359
40.10523987	2.86274505
40.10523987	2.72549009
40.10935974	2.74509811
40.11346436	2.92156863
40.11745453	3.11764717
40.12171936	3.11764717
40.12171936	2.92156863
40.12570953	2.76470590
40.12989807	2.72549009
40.13399887	2.84313726
40.13399887	3.07843137
40.13812256	3.15686274
40.14210892	3.00000000
40.14620590	2.80392146
40.15035248	2.72549009
40.15035248	2.82352948
40.15432358	3.03921580
40.15848541	3.17647052
40.16260529	3.07843137
40.16260529	2.86274505
40.16669464	2.74509811
40.17070007	2.76470590
40.17485428	2.96078420
40.17916489	3.09803915
40.17916489	3.05882359
40.18313599	2.84313726
40.18726349	2.68627453
40.19136810	2.64705873
40.19136810	2.78431368
40.19540024	2.96078420
40.19952011	3.01960778
40.20363998	2.80392146
40.20775223	2.62745094
40.20775223	2.52941179
40.21175766	2.62745094
40.21586990	2.82352948
40.21995163	2.92156863
40.21995163	2.74509811
40.22407150	2.56862736
40.22811127	2.45098042
40.23222351	2.49019599
40.23633575	2.70588231
40.23633575	2.84313726
40.24045563	2.76470590
40.24449539	2.52941179
40.24863052	2.41176462
40.24863052	2.39215684
40.25277710	2.58823538
40.25688934	2.74509811
40.26086044	2.76470590
40.26513672	2.39215684
40.26929092	2.33333325
40.27323151	2.47058821
40.27737045	2.66666675
40.27737045	2.76470590
40.28132629	2.58823538
40.28544617	2.41176462
40.28960800	2.33333325
40.29373550	2.60784316
40.29769135	2.74509811
40.30182266	2.64705873
40.30618668	2.43137264
40.30618668	2.31372547
40.31008911	2.35294127
40.31408691	2.54901958
40.31818771	2.70588231
40.32232666	2.47058821
40.32643890	2.33333325
40.33058548	2.31372547
40.33458328	2.49019599
40.33458328	2.70588231
40.33872604	2.74509811
40.34300232	2.58823538
40.34697723	2.41176462
40.35108948	2.47058821
40.35507965	2.70588231
40.35924911	2.82352948
40.36333466	2.70588231
40.36333466	2.52941179
40.36732483	2.43137264
40.37139511	2.47058821
40.37559891	2.68627453
40.37971878	2.74509811
40.38383102	2.54901958
40.38779068	2.41176462
40.39204025	2.43137264
40.39204025	2.60784316
40.39607239	2.78431368
40.40020752	2.78431368
40.40433502	2.58823538
40.40433502	2.43137264
40.40837479	2.39215684
40.41250229	2.50980401
40.41659164	2.72549009
40.42069626	2.80392146
40.42069626	2.64705873
40.42463684	2.47058821
40.42881393	2.41176462
40.43288422	2.52941179
40.43288422	2.74509811
40.43707275	2.88235283
40.44110107	2.80392146
40.44520569	2.60784316
40.44934464	2.50980401
40.44934464	2.54901958
40.45355606	2.74509811
40.45756912	2.90196085
40.46158981	2.88235283
40.46158981	2.68627453
40.46569443	2.54901958
40.46980667	2.52941179
40.47394562	2.70588231
40.47801590	2.90196085
40.47801590	2.94117641
40.48201370	2.76470590
40.48619080	2.58823538
40.49026108	2.54901958
40.49026108	2.62745094
40.49431610	2.84313726
40.49843979	2.94117641
40.50256729	2.84313726
40.50674438	2.66666675
40.50674438	2.54901958
40.51072693	2.60784316
40.51478195	2.80392146
40.51908112	2.96078420
40.51908112	2.90196085
40.52328491	2.70588231
40.52721024	2.58823538
40.53124619	2.58823538
40.53533554	2.74509811
40.53533554	2.90196085
40.53944778	2.92156863
40.54362488	2.72549009
40.54776382	2.54901958
40.54776382	2.50980401
40.55169296	2.62745094
40.55574799	2.82352948
40.55998611	2.88235283
40.56407928	2.72549009
40.56407928	2.54901958
40.56805420	2.45098042
40.57220078	2.54901958
