26.69819450	2.47058821
26.70238113	2.45098042
26.70637894	2.43137264
26.70637894	2.41176462
26.71045113	2.39215684
26.71462822	2.43137264
26.71870041	2.41176462
26.71870041	2.45098042
26.72281265	2.39215684
26.72692490	2.41176462
26.73101234	2.50980401
26.73514175	2.49019599
26.73514175	2.47058821
26.73926163	2.47058821
26.74325943	2.45098042
26.74743652	2.45098042
26.74743652	2.50980401
26.75154877	2.52941179
26.75571823	2.45098042
26.75970840	2.41176462
26.76382065	2.41176462
26.76382065	2.49019599
26.76795006	2.49019599
26.77206993	2.43137264
26.77620697	2.45098042
26.77620697	2.47058821
26.78027916	2.50980401
26.78427696	2.47058821
26.78846169	2.41176462
26.79254150	2.41176462
26.79254150	2.39215684
26.79652405	2.37254906
26.80064392	2.39215684
26.80480576	2.39215684
26.80480576	2.41176462
26.80899239	2.43137264
26.81295586	2.43137264
26.81707764	2.45098042
26.82132149	2.49019599
26.82132149	2.43137264
26.82535172	2.41176462
26.82934952	2.41176462
26.83354378	2.43137264
26.83354378	2.45098042
26.83755684	2.49019599
26.84168625	2.47058821
26.84577370	2.49019599
26.84977150	2.47058821
26.84977150	2.52941179
26.85397339	2.56862736
26.85804558	2.52941179
26.86215019	2.49019599
26.86215019	2.49019599
26.86630249	2.49019599
26.87030029	2.52941179
26.87443733	2.58823538
26.87853432	2.56862736
26.87853432	2.56862736
26.88265419	2.56862736
26.88661957	2.58823538
26.89077187	2.60784316
26.89077187	2.60784316
26.89483643	2.62745094
26.89903069	2.62745094
26.90295410	2.60784316
26.90727997	2.64705873
26.91126060	2.60784316
26.91541481	2.60784316
26.91953468	2.60784316
26.91953468	2.58823538
26.92352486	2.58823538
26.92763710	2.60784316
26.93176460	2.62745094
26.93596840	2.64705873
26.93991661	2.68627453
26.94408607	2.68627453
26.94818115	2.66666675
26.94818115	2.64705873
26.95227051	2.64705873
26.95634079	2.64705873
26.96039581	2.64705873
26.96452522	2.60784316
26.96872711	2.62745094
26.97268486	2.62745094
26.97677231	2.60784316
26.97677231	2.60784316
26.98090172	2.60784316
26.98505402	2.58823538
26.98919106	2.58823538
26.99332047	2.62745094
26.99730110	2.62745094
27.00141335	2.62745094
27.00555038	2.66666675
27.00555038	2.66666675
27.00959015	2.64705873
27.01368523	2.62745094
27.01795387	2.58823538
27.02190971	2.62745094
27.02592468	2.56862736
27.03001976	2.54901958
27.03428841	2.54901958
27.03428841	2.52941179
27.03840828	2.52941179
27.04243088	2.50980401
27.04652786	2.50980401
27.04652786	2.52941179
27.05051613	2.56862736
27.05461311	2.58823538
27.05880737	2.54901958
27.06291008	2.52941179
27.06291008	2.52941179
27.06687546	2.54901958
27.07093048	2.54901958
27.07512474	2.56862736
27.07512474	2.54901958
27.07922173	2.50980401
27.08329201	2.49019599
27.08733940	2.49019599
27.09153366	2.49019599
27.09153366	2.47058821
27.09556389	2.50980401
27.09961128	2.52941179
27.10374069	2.49019599
27.10374069	2.49019599
27.10790062	2.52941179
27.11198997	2.54901958
27.11610985	2.52941179
27.12022209	2.49019599
27.12022209	2.49019599
27.12424469	2.50980401
27.12839699	2.49019599
27.13247681	2.49019599
27.13247681	2.50980401
27.13650703	2.52941179
27.14056206	2.56862736
27.14474106	2.54901958
27.14884567	2.52941179
27.14884567	2.54901958
27.15284348	2.50980401
27.15701294	2.45098042
27.16127205	2.45098042
27.16127205	2.47058821
27.16526222	2.49019599
27.16926765	2.47058821
27.17338753	2.47058821
27.17752457	2.47058821
27.17752457	2.49019599
27.18163681	2.49019599
27.18578339	2.49019599
27.18989563	2.50980401
27.18989563	2.50980401
27.19389343	2.49019599
27.19803047	2.45098042
27.20234680	2.43137264
27.20629501	2.37254906
27.20629501	2.37254906
27.21031761	2.39215684
27.21439743	2.39215684
27.21851730	2.39215684
27.21851730	2.35294127
27.22270393	2.37254906
27.22664452	2.41176462
27.23076439	2.41176462
27.23486137	2.39215684
27.23486137	2.37254906
27.23903847	2.37254906
27.24302101	2.37254906
27.24727249	2.37254906
27.24727249	2.39215684
27.25123596	2.41176462
27.25537300	2.45098042
27.25950241	2.45098042
27.26347542	2.43137264
27.26347542	2.47058821
27.26760483	2.45098042
27.27183151	2.45098042
27.27593613	2.43137264
27.27593613	2.43137264
27.27990150	2.47058821
27.28402138	2.47058821
27.28814125	2.47058821
27.29233551	2.56862736
27.29626846	2.54901958
27.30039787	2.52941179
27.30456734	2.52941179
27.30456734	2.49019599
27.30873680	2.49019599
27.31284142	2.66666675
27.31682205	2.64705873
27.32093430	2.47058821
27.32511139	2.49019599
27.32920837	2.60784316
27.33349228	2.49019599
27.33349228	2.47058821
27.33728600	2.56862736
27.34148026	2.49019599
27.34551811	2.45098042
27.34964752	2.58823538
27.35368538	2.50980401
27.35782242	2.50980401
27.36188698	2.50980401
27.36188698	2.50980401
27.36602402	2.60784316
27.37005424	2.64705873
27.37437057	2.56862736
27.37833595	2.52941179
27.38245583	2.52941179
27.38644600	2.52941179
27.39059067	2.56862736
27.39059067	2.56862736
27.39470291	2.54901958
27.39877510	2.60784316
27.40289497	2.62745094
27.40289497	2.62745094
27.40693474	2.66666675
27.41107178	2.66666675
27.41515923	2.64705873
27.41920471	2.62745094
27.41920471	2.68627453
27.42330170	2.70588231
27.42740631	2.72549009
27.43152618	2.74509811
27.43152618	2.68627453
27.43559837	2.78431368
27.43962097	2.84313726
27.44374847	2.72549009
27.44787025	2.82352948
27.44787025	2.80392146
27.45203018	2.74509811
27.45620155	2.64705873
27.46027946	2.58823538
27.46027946	2.66666675
27.46426964	2.70588231
27.46843147	2.64705873
27.47249413	2.64705873
27.47657394	2.66666675
27.47657394	2.68627453
27.48062897	2.62745094
27.48475838	2.64705873
27.48889542	2.62745094
27.48889542	2.56862736
27.49288368	2.50980401
27.49698830	2.47058821
27.50115013	2.56862736
27.50519753	2.66666675
27.50519753	2.58823538
27.50938225	2.68627453
27.51336479	2.66666675
27.51750946	2.47058821
27.51750946	2.41176462
27.52164650	2.33333325
27.52570915	2.37254906
27.52969933	2.39215684
27.53395081	2.58823538
27.53395081	2.72549009
27.53801346	2.60784316
27.54221725	2.56862736
27.54632950	2.62745094
27.54632950	2.66666675
27.55032730	2.80392146
27.55441475	2.74509811
27.55860901	2.62745094
27.56271362	2.74509811
27.56271362	2.86274505
27.56669426	2.76470590
27.57082367	2.80392146
27.57492828	2.78431368
27.57492828	2.74509811
27.57905579	2.72549009
27.58302116	2.72549009
27.58730507	2.76470590
27.59133530	2.80392146
27.59133530	2.80392146
27.59545708	2.84313726
27.59951210	2.86274505
27.60347557	2.92156863
27.60347557	2.92156863
27.60770416	2.90196085
27.61179161	2.90196085
27.61595345	2.90196085
27.62008095	2.90196085
27.62008095	2.88235283
27.62406349	2.82352948
27.62819099	2.86274505
27.63233757	2.84313726
27.63233757	2.86274505
27.63627815	2.90196085
27.64045525	2.88235283
27.64451790	2.88235283
27.64863968	2.86274505
27.64863968	2.86274505
27.65280914	2.78431368
27.65682220	2.68627453
27.66088676	2.68627453
27.66088676	2.62745094
27.66501427	2.58823538
27.66917610	2.56862736
27.67330551	2.58823538
27.67731094	2.62745094
27.68144798	2.64705873
27.68556786	2.56862736
27.68965721	2.54901958
27.68965721	2.50980401
27.69365311	2.47058821
27.69777489	2.50980401
27.70192719	2.49019599
27.70608139	2.54901958
27.71007919	2.54901958
27.71427345	2.52941179
27.71826363	2.52941179
27.71826363	2.49019599
27.72251511	2.50980401
27.72642136	2.60784316
27.73055077	2.54901958
27.73465538	2.50980401
27.73882484	2.52941179
27.74290466	2.54901958
27.74689293	2.50980401
27.74689293	2.52941179
27.75094795	2.47058821
27.75510216	2.49019599
27.75925636	2.50980401
27.76321220	2.56862736
27.76729202	2.54901958
27.77147865	2.52941179
27.77558136	2.50980401
27.77558136	2.54901958
27.77968597	2.50980401
27.78370857	2.47058821
27.78783798	2.49019599
27.78783798	2.58823538
27.79204750	2.56862736
27.79615211	2.52941179
27.80024910	2.45098042
27.80429459	2.43137264
27.80429459	2.43137264
27.80834961	2.47058821
27.81246185	2.47058821
27.81661606	2.45098042
27.81661606	2.50980401
27.82063866	2.64705873
27.82473373	2.54901958
27.82893753	2.56862736
27.83303261	2.50980401
27.83303261	2.50980401
27.83699036	2.47058821
27.84111786	2.49019599
27.84528732	2.49019599
27.84528732	2.47058821
27.84940910	2.54901958
27.85334969	2.56862736
27.85753441	2.47058821
27.86161423	2.47058821
27.86161423	2.58823538
27.86583328	2.49019599
27.86974907	2.49019599
27.87388611	2.50980401
27.87388611	2.49019599
27.87794876	2.45098042
27.88210297	2.45098042
27.88620758	2.47058821
27.89044189	2.45098042
27.89044189	2.47058821
27.89433289	2.49019599
27.89842987	2.45098042
27.90259171	2.39215684
27.90259171	2.35294127
27.90666199	2.35294127
27.91071701	2.33333325
27.91481400	2.25490189
27.91896629	2.23529410
27.91896629	2.21568632
27.92308807	2.19607854
27.92722511	2.17647052
27.93118858	2.31372547
27.93118858	2.41176462
27.93535042	2.39215684
27.93950462	2.43137264
27.94348526	2.49019599
27.94758224	2.52941179
27.94758224	2.58823538
27.95170975	2.58823538
27.95586395	2.62745094
27.95994377	2.66666675
27.95994377	2.66666675
27.96397400	2.62745094
27.96804428	2.64705873
27.97234535	2.68627453
27.97631836	2.68627453
27.97631836	2.68627453
27.98034859	2.68627453
27.98449516	2.68627453
27.98855019	2.68627453
27.98855019	2.68627453
27.99275970	2.70588231
27.99670792	2.66666675
28.00086212	2.62745094
28.00489998	2.66666675
28.00489998	2.66666675
28.00908661	2.66666675
28.01326561	2.64705873
28.01724625	2.62745094
28.01724625	2.66666675
28.02141571	2.68627453
28.02555275	2.80392146
28.02964020	2.64705873
28.03363037	2.70588231
28.03777504	2.64705873
28.04193687	2.64705873
28.04600906	2.62745094
28.04600906	2.64705873
28.05000687	2.66666675
28.05424118	2.64705873
28.05828857	2.62745094
28.06238365	2.62745094
28.06651306	2.64705873
28.07047844	2.62745094
28.07467270	2.60784316
28.07467270	2.58823538
28.07880974	2.58823538
28.08290482	2.58823538
28.08688545	2.58823538
28.09101486	2.68627453
28.09519386	2.66666675
28.09925652	2.60784316
28.10338593	2.56862736
28.10338593	2.52941179
28.10737419	2.52941179
28.11149597	2.74509811
28.11561584	2.68627453
28.11972809	2.52941179
28.12375069	2.52941179
28.12786293	2.50980401
28.13196754	2.54901958
28.13196754	2.56862736
28.13639069	2.60784316
28.14030647	2.68627453
28.14427948	2.66666675
28.14838409	2.64705873
28.15250397	2.70588231
28.15657616	2.64705873
28.16054916	2.58823538
28.16054916	2.58823538
28.16472626	2.62745094
28.16889572	2.66666675
28.17301750	2.66666675
28.17301750	2.74509811
28.17695808	2.68627453
28.18113518	2.60784316
28.18527985	2.56862736
28.18940163	2.58823538
28.18940163	2.54901958
28.19340706	2.54901958
28.19754410	2.56862736
28.20170593	2.58823538
28.20170593	2.56862736
28.20579338	2.60784316
28.20980644	2.56862736
28.21388626	2.62745094
28.21800804	2.60784316
28.21800804	2.70588231
28.22213554	2.64705873
28.22632217	2.58823538
28.23025513	2.58823538
28.23025513	2.64705873
28.23438263	2.66666675
28.23862648	2.60784316
28.24270630	2.62745094
28.24682617	2.66666675
28.24682617	2.74509811
28.25082397	2.74509811
28.25490379	2.78431368
28.25905800	2.72549009
28.25905800	2.68627453
28.26317024	2.68627453
28.26729965	2.66666675
28.27130508	2.66666675
28.27539253	2.58823538
28.27539253	2.58823538
28.27959442	2.62745094
28.28354263	2.66666675
28.28767204	2.56862736
28.28767204	2.54901958
28.29173470	2.50980401
28.29594612	2.47058821
28.29996109	2.47058821
28.30403137	2.50980401
28.30403137	2.58823538
28.30816841	2.64705873
28.31242943	2.58823538
28.31645966	2.54901958
28.31645966	2.52941179
28.32043266	2.52941179
28.32452774	2.56862736
28.32862473	2.56862736
28.33272743	2.58823538
28.33272743	2.64705873
28.33677483	2.70588231
28.34094429	2.66666675
28.34506607	2.68627453
28.34506607	2.60784316
28.34913635	2.70588231
28.35326576	2.64705873
28.35732841	2.64705873
28.36138344	2.58823538
28.36138344	2.52941179
28.36550522	2.49019599
28.36965752	2.50980401
28.37376213	2.50980401
28.37376213	2.54901958
28.37776756	2.60784316
28.38194656	2.64705873
28.38606644	2.58823538
28.39014626	2.60784316
28.39014626	2.62745094
28.39431572	2.60784316
28.39832115	2.62745094
28.40244293	2.56862736
28.40244293	2.54901958
28.40652275	2.64705873
28.41056061	2.64705873
28.41465569	2.60784316
28.41876030	2.72549009
28.42288208	2.66666675
28.42694473	2.72549009
28.43100739	2.78431368
28.43100739	2.62745094
28.43512917	2.58823538
28.43927383	2.58823538
28.44337845	2.60784316
28.44735146	2.54901958
28.45148849	2.56862736
28.45560837	2.54901958
28.45982742	2.58823538
28.45982742	2.56862736
28.46380043	2.56862736
28.46792984	2.58823538
28.47206688	2.64705873
28.47615433	2.62745094
28.48029900	2.54901958
28.48426437	2.50980401
28.48838425	2.60784316
28.48838425	2.58823538
28.49256325	2.66666675
28.49652672	2.74509811
28.50063133	2.60784316
28.50473595	2.62745094
28.50893021	2.60784316
28.51306725	2.49019599
28.51717949	2.52941179
28.51717949	2.41176462
28.52128410	2.56862736
28.52532959	2.52941179
28.52944374	2.41176462
28.53344917	2.41176462
28.53751945	2.41176462
28.54168129	2.66666675
28.54577827	2.78431368
28.54577827	2.62745094
28.54988098	2.47058821
28.55383873	2.49019599
28.55810738	2.60784316
28.55810738	2.56862736
28.56216240	2.50980401
28.56624985	2.60784316
28.57025528	2.60784316
28.57480240	2.70588231
28.57480240	2.72549009
28.57851219	2.64705873
28.58269882	2.66666675
28.58682823	2.70588231
28.58682823	2.66666675
28.59079361	2.70588231
28.59492111	2.76470590
28.59902573	2.72549009
28.60313034	2.68627453
28.60313034	2.72549009
28.60736465	2.72549009
28.61134720	2.74509811
28.61539268	2.74509811
28.61539268	2.72549009
28.61951447	2.76470590
28.62353706	2.82352948
28.62767220	2.80392146
28.63182640	2.66666675
28.63182640	2.64705873
28.63594627	2.60784316
28.63991928	2.60784316
28.64404106	2.78431368
28.64404106	2.72549009
28.64819336	2.78431368
28.65255165	2.84313726
28.65637779	2.74509811
28.66056442	2.72549009
28.66056442	2.72549009
28.66450500	2.72549009
28.66862488	2.82352948
28.67283630	2.84313726
28.67283630	2.90196085
28.67675209	2.90196085
28.68087959	2.94117641
28.68500137	2.90196085
28.68922043	2.82352948
28.68922043	2.76470590
28.69333267	2.90196085
28.69729614	2.84313726
28.70141792	2.82352948
28.70141792	2.68627453
28.70555496	2.72549009
28.70971680	2.72549009
28.71368980	2.70588231
28.71780205	2.72549009
28.71780205	2.70588231
28.72188950	2.72549009
28.72604179	2.68627453
28.73020363	2.64705873
28.73020363	2.58823538
28.73426819	2.60784316
28.73825645	2.58823538
28.74245071	2.58823538
28.74649811	2.60784316
28.74649811	2.64705873
28.75049591	2.62745094
28.75462532	2.56862736
28.75880241	2.52941179
28.75880241	2.50980401
28.76288986	2.49019599
28.76688004	2.62745094
28.77100945	2.60784316
28.77509689	2.54901958
28.77921677	2.56862736
28.78318977	2.50980401
28.78735161	2.49019599
28.78735161	2.56862736
28.79156303	2.56862736
28.79562569	2.56862736
28.79978752	2.50980401
28.80381012	2.54901958
28.80797958	2.45098042
28.81204224	2.64705873
28.81618690	2.70588231
28.81618690	2.50980401
28.82031631	2.45098042
28.82430649	2.47058821
28.82840919	2.54901958
28.83257103	2.64705873
28.83669281	2.80392146
28.84069061	2.88235283
28.84481812	2.68627453
28.84481812	2.56862736
28.84889030	2.43137264
28.85301018	2.52941179
28.85716438	2.49019599
28.86126709	2.80392146
28.86524963	2.66666675
28.86937714	2.62745094
28.87354851	2.60784316
28.87354851	2.68627453
28.87754631	2.70588231
28.88169098	2.72549009
28.88580322	2.76470590
28.88990784	2.74509811
28.89389610	2.72549009
28.89806557	2.70588231
28.90218735	2.68627453
28.90218735	2.74509811
28.90642166	2.74509811
28.91026497	2.72549009
28.91441727	2.74509811
28.91441727	2.86274505
28.91849709	2.86274505
28.92262650	2.82352948
28.92666435	2.74509811
28.93078613	2.72549009
28.93078613	2.80392146
28.93488884	2.82352948
28.93896103	2.72549009
28.94314766	2.76470590
28.94314766	2.94117641
28.94726753	3.84313726
28.95126534	3.88235283
28.95542717	3.43137264
28.95948982	3.13725495
28.95948982	2.76470590
28.96346283	2.54901958
28.96758461	2.31372547
28.97172165	2.76470590
28.97172165	3.33333325
28.97589874	3.11764717
28.98005104	2.80392146
28.98406601	2.70588231
28.98826027	2.56862736
28.98826027	2.52941179
28.99225044	2.54901958
28.99641228	2.60784316
29.00056458	2.62745094
29.00056458	2.78431368
29.00447273	2.70588231
29.00861740	2.74509811
29.01275444	2.70588231
29.01687431	2.68627453
29.01687431	2.64705873
29.02086449	2.62745094
29.02501869	2.72549009
29.02910614	2.78431368
29.02910614	2.80392146
29.03325081	2.70588231
29.03724861	3.07843137
29.04141808	3.13725495
29.04553032	2.88235283
29.04553032	2.88235283
29.04963493	2.86274505
29.05363274	2.78431368
29.05780220	2.74509811
29.05780220	2.74509811
29.06189919	2.80392146
29.06599426	2.84313726
29.07012367	2.86274505
29.07429314	2.72549009
29.07429314	2.80392146
29.07825851	2.74509811
29.08243561	2.68627453
29.08656502	2.70588231
29.08656502	2.68627453
29.09062004	2.82352948
29.09465027	2.94117641
29.09878731	2.76470590
29.10290718	2.66666675
29.10290718	2.64705873
29.10715866	2.62745094
29.11103439	2.68627453
29.11529350	2.72549009
29.11529350	2.70588231
29.11925125	2.84313726
29.12337875	2.70588231
29.12740898	2.70588231
29.13156319	2.78431368
29.13156319	2.62745094
29.13563538	2.82352948
29.13978004	2.84313726
29.14390755	2.82352948
29.14390755	2.72549009
29.14791489	2.76470590
29.15205956	2.78431368
29.15616417	2.74509811
29.16029167	2.68627453
29.16428947	2.72549009
29.16844368	2.74509811
29.17250633	2.76470590
29.17250633	2.82352948
29.17679024	2.76470590
29.18062401	2.74509811
29.18479538	2.62745094
29.18887329	2.62745094
29.19299507	2.68627453
29.19705772	2.74509811
29.20124435	2.66666675
29.20124435	2.58823538
29.20524216	2.54901958
29.20935440	2.74509811
29.21349907	2.72549009
29.21748924	2.70588231
29.22160149	2.66666675
29.22573853	2.62745094
29.22985840	2.64705873
29.22985840	2.60784316
29.23385620	2.37254906
29.23795319	2.58823538
29.24216270	2.78431368
29.24632454	2.78431368
29.25025749	2.64705873
29.25432777	2.54901958
29.25853920	2.66666675
29.25853920	2.45098042
29.26268387	2.78431368
29.26674652	2.78431368
29.27074432	2.74509811
29.27491570	2.52941179
29.27895355	2.58823538
29.28313065	2.56862736
29.28726006	2.86274505
29.28726006	2.96078420
29.29128265	2.82352948
29.29533768	2.60784316
29.29944992	2.49019599
29.29944992	2.43137264
29.30344009	2.47058821
29.30761719	2.60784316
29.31168938	2.76470590
29.31582642	2.68627453
29.31582642	2.66666675
29.32001114	2.64705873
29.32399368	2.68627453
29.32825279	2.62745094
29.32825279	2.74509811
29.33224297	2.70588231
29.33638000	2.78431368
29.34045029	2.86274505
29.34453011	2.82352948
29.34453011	2.66666675
29.34867477	2.76470590
29.35281181	2.80392146
29.35688400	2.90196085
29.35688400	2.88235283
29.36091423	2.94117641
29.36501122	2.80392146
29.36912346	2.64705873
29.37329292	2.58823538
29.37329292	2.62745094
29.37727356	2.70588231
29.38137054	2.66666675
29.38549042	2.68627453
29.38549042	2.66666675
29.38966751	2.58823538
29.39369965	2.68627453
29.39772987	2.72549009
29.40184975	2.54901958
29.40184975	2.47058821
29.40600395	2.54901958
29.41011620	2.58823538
29.41422844	2.47058821
29.41422844	2.45098042
29.41823387	2.76470590
29.42232895	2.80392146
29.42648315	2.64705873
29.43066025	2.60784316
29.43066025	2.54901958
29.43462563	2.60784316
29.43875504	2.62745094
29.44291687	2.60784316
29.44291687	2.62745094
29.44688988	2.58823538
29.45099449	2.56862736
29.45503998	2.54901958
29.45922661	2.60784316
29.45922661	2.64705873
29.46337128	2.62745094
29.46735382	2.56862736
29.47146606	2.49019599
29.47146606	2.56862736
29.47561836	2.58823538
29.47976303	2.62745094
29.48380280	2.66666675
29.48794746	2.54901958
29.48794746	2.41176462
29.49201965	2.52941179
29.49617195	2.52941179
29.50025940	2.49019599
29.50025940	2.50980401
29.50424194	2.49019599
29.50831223	2.45098042
29.51246643	2.52941179
29.51660347	2.50980401
29.51660347	2.45098042
29.52059364	2.45098042
29.52472115	2.41176462
29.52887535	2.41176462
29.52887535	2.45098042
29.53297997	2.50980401
29.53712463	2.54901958
29.54127693	2.45098042
29.54527473	2.62745094
29.54937935	2.39215684
29.55349922	2.80392146
29.55749702	2.70588231
29.55749702	2.49019599
29.56167603	2.33333325
29.56573868	2.45098042
29.56986809	2.39215684
29.57394791	2.56862736
29.57801056	2.66666675
29.58218002	2.78431368
29.58630943	2.64705873
29.58630943	2.60784316
29.59028244	2.52941179
29.59440231	2.45098042
29.59854889	2.49019599
29.60269356	2.47058821
29.60675621	2.66666675
29.61081886	2.64705873
29.61498070	2.70588231
29.61498070	2.66666675
29.61901093	2.54901958
29.62312317	2.47058821
29.62726974	2.52941179
29.63127518	2.70588231
29.63536263	2.76470590
29.63953209	2.60784316
29.64359665	2.58823538
29.64359665	2.56862736
29.64760208	2.58823538
29.65174675	2.54901958
29.65587616	2.56862736
29.65587616	2.52941179
29.65998840	2.52941179
29.66404343	2.64705873
29.66831017	2.72549009
29.67223549	2.70588231
29.67223549	2.60784316
29.67642021	2.58823538
29.68040276	2.54901958
29.68453979	2.52941179
29.68453979	2.39215684
29.68863487	2.50980401
29.69275665	2.62745094
29.69690895	2.58823538
29.70101357	2.50980401
29.70101357	2.50980401
29.70498657	2.56862736
29.70909882	2.50980401
29.71331024	2.58823538
29.71331024	2.58823538
29.71728325	2.56862736
29.72141075	2.43137264
29.72560501	2.45098042
29.72973442	2.37254906
29.72973442	2.43137264
29.73380661	2.47058821
29.73776245	2.41176462
29.74189186	2.49019599
29.74189186	2.45098042
29.74604416	2.39215684
29.75011635	2.41176462
29.75423622	2.52941179
29.75825882	2.60784316
29.75825882	2.50980401
29.76240349	2.52941179
29.76649284	2.52941179
29.77061272	2.47058821
29.77061272	2.41176462
29.77466774	2.43137264
29.77875519	2.41176462
29.78285980	2.74509811
29.78697968	2.62745094
29.78697968	2.43137264
29.79100990	2.37254906
29.79518127	2.41176462
29.79921150	2.39215684
29.79921150	2.43137264
29.80329895	2.62745094
29.80736160	2.52941179
29.81142616	2.43137264
29.81559563	2.41176462
29.81559563	2.41176462
29.81975746	2.56862736
29.82377052	2.54901958
29.82784271	2.54901958
29.82784271	2.56862736
29.83197975	2.49019599
29.83610725	2.37254906
29.84043312	2.41176462
29.84424973	2.37254906
29.84424973	2.43137264
29.84839630	2.39215684
29.85250854	2.45098042
29.85676765	2.47058821
29.85676765	2.43137264
29.86064339	2.49019599
29.86477089	2.50980401
29.86886787	2.47058821
29.87298775	2.41176462
29.87298775	2.49019599
29.87717438	2.50980401
29.88123703	2.45098042
29.88523483	2.39215684
29.88523483	2.39215684
29.88947105	2.45098042
29.89369774	2.54901958
29.89749908	2.52941179
29.90165138	2.56862736
29.90578079	2.50980401
29.90995789	2.50980401
29.91402245	2.50980401
29.91402245	2.49019599
29.91805267	2.64705873
29.92214775	2.68627453
29.92627716	2.72549009
29.93040657	2.58823538
29.93438721	2.52941179
29.93849182	2.56862736
29.94261169	2.66666675
29.94261169	2.66666675
29.94680595	2.70588231
29.95073891	2.72549009
29.95484352	2.74509811
29.95897102	2.64705873
29.96311569	2.70588231
29.96723747	2.72549009
29.97119331	2.58823538
29.97119331	2.70588231
29.97537231	2.82352948
29.97949219	2.84313726
29.98357964	2.84313726
29.98757744	2.74509811
29.99173164	2.78431368
29.99586868	2.68627453
29.99998856	2.58823538
29.99998856	2.64705873
30.00398636	2.70588231
30.00826263	2.74509811
30.01218605	2.72549009
30.01635551	2.70588231
30.02036285	2.58823538
30.02448273	2.62745094
30.02863693	2.64705873
30.02863693	2.66666675
30.03281403	2.86274505
30.03692627	2.78431368
30.04134178	2.70588231
30.04503632	2.60784316
30.04914856	2.66666675
30.05325317	2.70588231
30.05736542	2.74509811
30.05736542	2.72549009
30.06140327	2.66666675
30.06550789	2.66666675
30.06961250	2.68627453
30.06961250	2.64705873
30.07376671	2.60784316
30.07777977	2.60784316
30.08181000	2.58823538
30.08599663	2.62745094
30.08599663	2.68627453
30.09012604	2.86274505
30.09444237	2.74509811
30.09818649	2.76470590
30.09818649	2.76470590
30.10234833	2.74509811
30.10647583	2.72549009
30.11099052	2.70588231
30.11459541	2.66666675
30.11459541	2.86274505
30.11877251	2.82352948
30.12286949	2.82352948
30.12698936	2.74509811
30.12698936	2.78431368
30.13106155	2.80392146
30.13523865	2.78431368
30.13926125	2.72549009
30.14335632	2.82352948
30.14335632	2.82352948
30.14736366	2.68627453
30.15147591	2.78431368
30.15562820	2.84313726
30.15562820	2.76470590
30.15973282	2.74509811
30.16386986	2.80392146
30.16786003	2.80392146
30.17195511	2.74509811
30.17195511	2.70588231
30.17611694	2.78431368
30.18024635	2.72549009
30.18440628	2.68627453
30.18440628	2.66666675
30.18839645	2.76470590
30.19248390	2.82352948
30.19661331	2.80392146
30.20079994	2.74509811
30.20079994	2.62745094
30.20478058	2.64705873
30.20888519	2.68627453
30.21298981	2.68627453
30.21298981	2.58823538
30.21712494	2.70588231
30.22120476	2.78431368
30.22533417	2.72549009
30.22938919	2.64705873
30.22938919	2.62745094
30.23352623	2.70588231
30.23754883	2.76470590
30.24198914	2.74509811
30.24198914	2.68627453
30.24574852	2.74509811
30.24989319	2.74509811
30.25399017	2.62745094
30.25798798	2.68627453
30.25798798	2.76470590
30.26230431	2.68627453
30.26623726	2.72549009
30.27035713	2.84313726
30.27035713	2.78431368
30.27444458	2.72549009
30.27854919	2.86274505
30.28262138	2.92156863
30.28678322	2.70588231
30.29082108	2.70588231
30.29499817	2.62745094
30.29898071	2.66666675
30.29898071	2.72549009
30.30315018	2.72549009
30.30734444	2.70588231
30.31139183	2.70588231
30.31538010	2.74509811
30.31950188	2.74509811
30.32361412	2.70588231
30.32773399	2.80392146
30.32773399	2.86274505
30.33179665	2.76470590
30.33586884	2.70588231
30.34000587	2.76470590
30.34419250	2.78431368
30.34830475	2.74509811
30.35229301	2.74509811
30.35640717	2.78431368
30.35640717	2.76470590
30.36055183	2.70588231
30.36453247	2.76470590
30.36867714	2.86274505
30.37274933	2.70588231
30.37692642	2.76470590
30.38087654	2.82352948
30.38502884	2.74509811
30.38502884	2.72549009
30.38912582	2.74509811
30.39323807	2.80392146
30.39735794	2.82352948
30.40142059	2.60784316
30.40548515	2.72549009
30.40960503	2.78431368
30.41371727	2.82352948
30.41371727	2.80392146
30.41773224	2.74509811
30.42185211	2.74509811
30.42596436	2.76470590
30.42596436	2.76470590
30.43009377	2.64705873
30.43423080	2.64705873
30.43818665	2.70588231
30.44267654	2.72549009
30.44267654	2.78431368
30.44653511	2.78431368
30.45065498	2.74509811
30.45466042	2.66666675
30.45466042	2.68627453
30.45873260	2.78431368
30.46290207	2.80392146
30.46699905	2.78431368
30.47115135	2.72549009
30.47115135	2.66666675
30.47525597	2.68627453
30.47930336	2.70588231
30.48336601	2.66666675
30.48336601	2.62745094
30.48735619	2.72549009
30.49149323	2.74509811
30.49592400	2.62745094
30.49978256	2.66666675
30.49978256	2.72549009
30.50389481	2.68627453
30.50788498	2.70588231
30.51198006	2.72549009
30.51198006	2.68627453
30.51618385	2.62745094
30.52027130	2.62745094
30.52427673	2.64705873
30.52835655	2.66666675
30.52835655	2.58823538
30.53252602	2.62745094
30.53668022	2.66666675
30.54079247	2.64705873
30.54079247	2.62745094
30.54478073	2.62745094
30.54891777	2.62745094
30.55304718	2.76470590
30.55719948	2.70588231
30.55719948	2.62745094
30.56124687	2.64705873
30.56527710	2.72549009
30.56938171	2.64705873
30.56938171	2.62745094
30.57348633	2.70588231
30.57752419	2.64705873
30.58162880	2.70588231
30.58573341	2.66666675
30.58573341	2.70588231
30.58987808	2.68627453
30.59402275	2.72549009
30.59798813	2.68627453
30.59798813	2.66666675
30.60223198	2.64705873
30.60623741	2.64705873
30.61035919	2.68627453
30.61448669	2.68627453
30.61448669	2.64705873
30.61848450	2.70588231
30.62261391	2.70588231
30.62689781	2.66666675
30.62689781	2.64705873
30.63073921	2.72549009
30.63489342	2.70588231
30.63898087	2.64705873
30.64310265	2.60784316
30.64310265	2.72549009
30.64726257	2.76470590
30.65126038	2.64705873
30.65535736	2.58823538
30.65535736	2.68627453
30.65942764	2.70588231
30.66358948	2.64705873
30.66775131	2.64705873
30.67173195	2.66666675
30.67586899	2.68627453
30.68025208	2.76470590
30.68411827	2.74509811
30.68411827	2.66666675
30.68835449	2.62745094
30.69225311	2.58823538
30.69635773	2.62745094
30.70052719	2.66666675
30.70454979	2.72549009
30.70864677	2.72549009
30.71273422	2.72549009
30.71273422	2.72549009
30.71689606	2.66666675
30.72095108	2.64705873
30.72506332	2.68627453
30.72916603	2.62745094
30.73328018	2.60784316
30.73742485	2.66666675
30.74143028	2.66666675
30.74143028	2.68627453
30.74551010	2.70588231
30.74964714	2.60784316
30.75374222	2.58823538
30.75773239	2.56862736
30.76191902	2.60784316
30.76600647	2.60784316
30.77010155	2.64705873
30.77010155	2.64705873
30.77426338	2.66666675
30.77826881	2.62745094
30.78230858	2.50980401
30.78648567	2.49019599
30.79062271	2.56862736
30.79458046	2.56862736
30.79874992	2.52941179
30.79874992	2.49019599
30.80289459	2.56862736
30.80699158	2.58823538
30.81116867	2.58823538
30.81116867	2.52941179
30.81524086	2.50980401
30.81927109	2.39215684
30.82337570	2.45098042
30.82747841	2.54901958
30.82747841	2.58823538
30.83151817	2.43137264
30.83562279	2.49019599
30.83975029	2.47058821
30.83975029	2.54901958
30.84385490	2.60784316
30.84789276	2.64705873
30.85201454	2.50980401
30.85613441	2.45098042
30.85613441	2.37254906
30.86029625	2.33333325
30.86428642	2.49019599
30.86841393	2.60784316
30.86841393	2.64705873
30.87252617	2.60784316
30.87668037	2.56862736
30.88091469	2.52941179
30.88475800	2.43137264
30.88475800	2.33333325
30.88890266	2.27450991
30.89298248	2.35294127
30.89710236	2.52941179
30.89710236	2.50980401
30.90126419	2.54901958
30.90527916	2.58823538
30.90937424	2.60784316
30.91347885	2.62745094
30.91347885	2.58823538
30.91751671	2.50980401
30.92162895	2.41176462
30.92578316	2.41176462
30.92578316	2.56862736
30.92990303	2.60784316
30.93404007	2.60784316
30.93802261	2.62745094
30.94229889	2.60784316
30.94229889	2.37254906
30.94623756	2.25490189
30.95039940	2.62745094
30.95446396	2.84313726
30.95446396	2.76470590
30.95857620	2.54901958
30.96263885	2.43137264
30.96675110	2.52941179
30.97084808	2.58823538
30.97084808	2.64705873
30.97487831	2.54901958
30.97901535	2.64705873
30.98310280	2.66666675
30.98310280	2.82352948
30.98723984	2.60784316
30.99124527	2.68627453
30.99533272	2.66666675
30.99946213	2.45098042
30.99946213	2.45098042
31.00354195	2.70588231
31.00762177	2.50980401
31.01170158	2.62745094
31.01170158	2.92156863
31.01581383	2.82352948
31.01999092	2.68627453
31.02414513	2.35294127
31.02823257	2.45098042
31.03222084	2.60784316
31.03634262	3.19607854
31.04049492	3.11764717
31.04049492	2.78431368
31.04451752	2.52941179
31.04863930	2.43137264
31.05278397	2.52941179
31.05692101	2.64705873
31.06087685	2.58823538
31.06501389	2.60784316
31.06922531	2.64705873
31.06922531	2.70588231
31.07322311	2.52941179
31.07736015	2.39215684
31.08138275	2.64705873
31.08547783	2.68627453
31.08962250	2.58823538
31.09376907	2.33333325
31.09785652	2.29411769
31.09785652	2.41176462
31.10184479	2.68627453
31.10599136	2.62745094
31.11011124	2.60784316
31.11418343	2.33333325
31.11818123	2.45098042
31.12234116	2.74509811
31.12646294	2.74509811
31.12646294	2.62745094
31.13060760	2.58823538
31.13463783	2.23529410
31.13874245	2.05882359
31.14284706	2.58823538
31.14702415	2.49019599
31.15098953	2.54901958
31.15522385	2.52941179
31.15522385	2.29411769
31.15914917	2.50980401
31.16333389	2.49019599
31.16748810	2.37254906
31.16748810	2.17647052
31.17144394	2.47058821
31.17563820	2.74509811
31.17971802	2.70588231
31.18379784	2.74509811
31.18379784	2.56862736
31.18787003	2.54901958
31.19192505	2.62745094
31.19621658	2.62745094
31.19621658	2.54901958
31.20015717	2.43137264
31.20436859	2.54901958
31.20837402	2.56862736
31.21258545	2.74509811
31.21258545	2.72549009
31.21660805	2.76470590
31.22072029	2.58823538
31.22487259	2.62745094
31.22487259	2.62745094
31.22889519	2.64705873
31.23303986	2.58823538
31.23715210	2.62745094
31.24128914	2.60784316
31.24128914	2.60784316
31.24525452	2.66666675
31.24938393	2.68627453
31.25349617	2.66666675
31.25349617	2.37254906
31.25760078	2.25490189
31.26160622	2.47058821
31.26578331	2.56862736
31.26985550	2.54901958
31.26985550	2.50980401
31.27400017	2.56862736
31.27803040	2.37254906
31.28223419	2.39215684
31.28223419	2.45098042
31.28623009	2.39215684
31.29037666	2.41176462
31.29448891	2.21568632
31.29847717	2.47058821
31.29847717	2.50980401
31.30257416	2.33333325
31.30671883	2.39215684
31.31085587	2.29411769
31.31085587	2.17647052
31.31485367	2.33333325
31.31896591	2.41176462
31.32312012	2.35294127
31.32722473	2.27450991
31.32722473	2.31372547
31.33122063	2.27450991
31.33540726	2.41176462
31.33946228	2.31372547
31.33946228	2.31372547
31.34360695	2.23529410
31.34771156	2.25490189
31.35170937	2.23529410
31.35586357	2.25490189
31.35586357	2.43137264
31.36006546	2.45098042
31.36408043	2.13725495
31.36825752	2.31372547
31.36825752	2.43137264
31.37223053	2.25490189
31.37639999	2.41176462
31.38052177	2.45098042
31.38463402	2.47058821
31.38463402	2.41176462
31.38864708	2.37254906
31.39272690	2.27450991
31.39684677	2.33333325
31.39684677	2.21568632
31.40101814	2.41176462
31.40499878	2.62745094
31.40925789	2.52941179
31.41324043	2.58823538
31.41732788	2.72549009
31.42138290	2.68627453
31.42554474	2.43137264
31.42554474	2.47058821
31.42966461	2.45098042
31.43379402	2.52941179
31.43788910	2.56862736
31.44191170	2.70588231
31.44599152	2.66666675
31.45013618	2.60784316
31.45424080	2.43137264
31.45424080	2.45098042
31.45822144	2.45098042
31.46234322	2.56862736
31.46653748	2.54901958
31.47059250	2.39215684
31.47462273	2.52941179
31.47877502	2.64705873
31.48296928	2.72549009
31.48296928	2.60784316
31.48703384	2.49019599
31.49106407	2.50980401
31.49529076	2.68627453
31.49928856	2.58823538
31.50339317	2.60784316
31.50754547	2.62745094
31.51166725	2.56862736
31.51166725	2.54901958
31.51559830	2.50980401
31.51977730	2.21568632
31.52387238	2.47058821
31.52784538	2.66666675
31.53200722	2.49019599
31.53612709	2.39215684
31.54024124	2.49019599
31.54024124	2.50980401
31.54434395	2.72549009
31.54834175	2.94117641
31.55251122	2.50980401
31.55251122	2.35294127
31.55663300	2.41176462
31.56091690	2.54901958
31.56478310	2.64705873
31.56888008	2.74509811
31.56888008	2.74509811
31.57298470	2.56862736
31.57716179	2.43137264
31.58126640	2.58823538
31.58126640	2.52941179
31.58525467	2.49019599
31.58940125	2.41176462
31.59348869	2.45098042
31.59759331	2.72549009
31.59759331	2.80392146
31.60164833	2.92156863
31.60576057	2.62745094
31.60984039	2.56862736
31.60984039	2.74509811
31.61390305	2.76470590
31.61799049	2.72549009
31.62220955	2.56862736
31.62623215	2.60784316
31.62623215	2.78431368
31.63035965	2.76470590
31.63434219	2.76470590
31.63843727	2.84313726
31.63843727	2.76470590
31.64259148	2.70588231
31.64675331	2.45098042
31.65088081	2.72549009
31.65497780	2.84313726
31.65497780	2.72549009
31.65896797	2.66666675
31.66309547	2.62745094
31.66720772	2.74509811
31.66720772	2.74509811
31.67114830	2.68627453
31.67533493	2.62745094
31.67946434	2.54901958
31.68359947	2.60784316
31.68359947	2.50980401
31.68768883	2.54901958
31.69170189	2.76470590
31.69582367	2.78431368
31.69582367	2.70588231
31.69990158	2.68627453
31.70407295	2.62745094
31.70817566	2.52941179
31.71221542	2.49019599
31.71221542	2.68627453
31.71627808	2.68627453
31.72044754	2.49019599
31.72464180	2.47058821
31.72464180	2.56862736
31.72857475	2.54901958
31.73271942	2.64705873
31.73685646	2.68627453
31.74099350	2.47058821
31.74099350	2.56862736
31.74496651	2.54901958
31.74921036	2.58823538
31.75318336	2.70588231
31.75318336	2.70588231
31.75732803	2.56862736
31.76144981	2.58823538
31.76548767	2.52941179
31.76963234	2.52941179
31.77371979	2.60784316
31.77784157	2.43137264
31.78190422	2.62745094
31.78190422	2.62745094
31.78596687	2.56862736
31.79011345	2.58823538
31.79428291	2.58823538
31.79828072	2.78431368
31.80234337	2.68627453
31.80645561	2.62745094
31.81057549	2.64705873
31.81057549	2.64705873
31.81472206	2.64705873
31.81867027	2.52941179
31.82283211	2.56862736
31.82695198	2.62745094
31.83112144	2.56862736
31.83525085	2.60784316
31.83924103	2.60784316
31.83924103	2.62745094
31.84334373	2.56862736
31.84746552	2.49019599
31.85165024	2.50980401
31.85561562	2.35294127
31.85971260	2.52941179
31.86391449	2.64705873
31.86802673	2.58823538
31.86802673	2.60784316
31.87215614	2.66666675
31.87616158	2.54901958
31.88028145	2.49019599
31.88448524	2.39215684
31.88838387	2.54901958
31.89251328	2.74509811
31.89659309	2.70588231
31.89659309	2.62745094
31.90071297	2.47058821
31.90478516	2.54901958
31.90885544	2.47058821
31.91296005	2.72549009
31.91707993	2.82352948
31.92119217	2.64705873
31.92524719	2.45098042
31.92524719	2.39215684
31.92935181	2.60784316
31.93343925	2.70588231
31.93761063	2.39215684
31.93761063	2.41176462
31.94159889	2.49019599
31.94599915	2.64705873
31.94985771	2.64705873
31.95401001	2.84313726
31.95401001	2.64705873
31.95797539	2.72549009
31.96220970	2.68627453
31.96625710	2.70588231
31.96625710	2.60784316
31.97029495	2.76470590
31.97448921	3.01960778
31.97845459	3.03921580
31.98257637	2.64705873
31.98257637	2.76470590
31.98672867	2.72549009
31.99088287	2.72549009
31.99497032	2.78431368
31.99497032	2.72549009
31.99895096	2.68627453
32.00307846	2.70588231
32.00721741	2.74509811
32.01132965	2.66666675
32.01132965	2.50980401
32.01536179	2.54901958
32.01944733	2.58823538
32.02352905	2.50980401
32.02352905	2.52941179
32.02773666	2.56862736
32.03165436	2.58823538
32.03581619	2.82352948
32.04001617	2.76470590
32.04001617	2.72549009
32.04408264	2.64705873
32.04819489	2.64705873
32.05221558	2.62745094
32.05221558	2.60784316
32.05634308	2.68627453
32.06045532	2.70588231
32.06465912	2.60784316
32.06864929	2.70588231
32.06864929	2.80392146
32.07276154	2.72549009
32.07688904	2.62745094
32.08102798	2.52941179
32.08102798	2.64705873
32.08499908	2.76470590
32.08925247	2.56862736
32.09323502	2.49019599
32.09733582	2.35294127
32.09733582	2.49019599
32.10134506	2.68627453
32.10555267	2.72549009
32.10959244	2.96078420
32.10959244	2.86274505
32.11371231	2.50980401
32.11780930	2.39215684
32.12180710	2.43137264
32.12595367	2.41176462
32.12595367	2.45098042
32.13008881	2.60784316
32.13419342	2.68627453
32.13829803	2.52941179
32.13829803	2.50980401
32.14233780	2.52941179
32.14662933	2.52941179
32.15064240	2.72549009
32.15476227	2.68627453
32.15476227	2.58823538
32.15871048	2.58823538
32.16284180	2.58823538
32.16700363	2.50980401
32.16700363	2.58823538
32.17113113	2.60784316
32.17525101	2.62745094
32.17921448	2.66666675
32.18337631	2.56862736
32.18753815	2.70588231
32.19156265	2.76470590
32.19564819	2.68627453
32.19564819	2.80392146
32.19994354	2.66666675
32.20384979	2.78431368
32.20803452	2.88235283
32.21202469	2.82352948
32.21637344	2.80392146
32.22024155	2.74509811
32.22438812	2.82352948
32.22438812	2.72549009
32.22833633	2.52941179
32.23246384	2.43137264
32.23666000	2.62745094
32.24073792	2.78431368
32.24471283	2.74509811
32.24881744	2.68627453
32.25296021	2.58823538
32.25296021	2.68627453
32.25712204	2.84313726
32.26119232	2.60784316
32.26519012	2.47058821
32.26940155	2.80392146
32.27347183	2.72549009
32.27763367	2.72549009
32.28178024	2.68627453
32.28178024	2.52941179
32.28574371	2.49019599
32.28987503	2.62745094
32.29396820	2.64705873
32.29809189	2.72549009
32.30219650	2.54901958
32.30625153	2.50980401
32.31037140	2.52941179
32.31037140	2.66666675
32.31446457	2.70588231
32.31846237	2.50980401
32.32263184	2.45098042
32.32263184	2.31372547
32.32670593	2.35294127
32.33090591	2.50980401
32.33484650	2.58823538
32.33900070	2.64705873
32.33900070	2.68627453
32.34312057	2.62745094
32.34735870	2.70588231
32.35137939	2.50980401
32.35137939	2.54901958
32.35550690	2.62745094
32.35948944	2.60784316
32.36358643	2.62745094
32.36775589	2.43137264
32.36775589	2.49019599
32.37175369	2.37254906
32.37583923	2.60784316
32.37996292	2.66666675
32.37996292	2.56862736
32.38412476	2.64705873
32.38825226	2.70588231
32.39226532	2.76470590
32.39637756	2.76470590
32.39637756	2.66666675
32.40073776	2.47058821
32.40463638	2.56862736
32.40864944	2.86274505
32.40864944	2.72549009
32.41273117	2.50980401
32.41683197	2.56862736
32.42102051	2.62745094
32.42514038	2.62745094
32.42514038	2.50980401
32.42921829	2.62745094
32.43320847	2.74509811
32.43737030	2.68627453
32.43737030	2.62745094
32.44155884	2.58823538
32.44550705	2.56862736
32.44965744	2.56862736
32.45376205	2.60784316
32.45376205	2.84313726
32.45790863	2.64705873
32.46187973	2.49019599
32.46597672	2.56862736
32.46597672	2.62745094
32.47012329	2.52941179
32.47423553	2.72549009
32.47820663	2.52941179
32.48237610	2.54901958
32.48237610	2.54901958
32.48647308	2.60784316
32.49060440	2.72549009
32.49470520	2.64705873
32.49470520	2.66666675
32.49874496	2.78431368
32.50289917	2.64705873
32.50699615	2.52941179
32.51114655	2.43137264
32.51114655	2.54901958
32.51527786	2.56862736
32.51924896	2.45098042
32.52334595	2.43137264
32.52334595	2.58823538
32.52752304	2.60784316
32.53152847	2.80392146
32.53560257	2.76470590
32.53976440	2.58823538
32.53976440	2.45098042
32.54384995	2.37254906
32.54796219	2.56862736
32.55200958	2.56862736
32.55200958	2.80392146
32.55625153	2.64705873
32.56021118	2.62745094
32.56433105	2.72549009
32.56849289	2.62745094
32.57247162	2.52941179
32.57657623	2.41176462
32.58069992	2.54901958
32.58069992	2.58823538
32.58484268	2.70588231
32.58882523	2.64705873
32.59291077	2.60784316
32.59706497	2.64705873
32.60112000	2.62745094
32.60532379	2.31372547
32.60932159	2.33333325
32.60932159	2.50980401
32.61342621	2.70588231
32.61758804	2.66666675
32.62171555	2.60784316
32.62571335	2.29411769
32.62984085	2.47058821
32.63396072	2.41176462
32.63805008	2.52941179
32.63805008	2.66666675
32.64221191	2.62745094
32.64619446	2.58823538
32.65029907	2.60784316
32.65441132	2.49019599
32.65839005	2.35294127
32.66256714	2.43137264
32.66665649	2.41176462
32.66665649	2.35294127
32.67087555	2.33333325
32.67487335	2.37254906
32.67892838	2.43137264
32.68308258	2.25490189
32.68728256	2.01960778
32.69142151	2.15686274
32.69552612	2.35294127
32.69552612	2.62745094
32.69948959	2.45098042
32.70363617	2.37254906
32.70776367	2.27450991
32.70776367	2.15686274
32.71176910	2.23529410
32.71587372	2.19607854
32.71997833	2.15686274
32.72412491	2.11764717
32.72412491	2.33333325
32.72821045	2.33333325
32.73220825	2.33333325
32.73637772	2.29411769
32.73637772	2.29411769
32.74049759	2.01960778
32.74457932	2.23529410
32.74850464	2.37254906
32.75267410	2.29411769
32.75267410	2.41176462
32.75683594	2.31372547
32.76095581	2.43137264
32.76508331	2.54901958
32.76508331	2.54901958
32.76918793	2.43137264
32.77318573	2.43137264
32.77733994	2.27450991
32.78143311	2.19607854
32.78143311	2.33333325
32.78544998	2.54901958
32.78960419	2.60784316
32.79377365	2.54901958
32.79377365	2.50980401
32.79784393	2.41176462
32.80183411	2.41176462
32.80601120	2.31372547
32.81023026	2.54901958
32.81023026	2.41176462
32.81422043	2.41176462
32.81814194	2.31372547
32.82238007	2.54901958
32.82238007	2.64705873
32.82647324	2.45098042
32.83059692	2.47058821
32.83472443	2.52941179
32.83866501	2.62745094
32.83866501	2.49019599
32.84284973	2.49019599
32.84695435	2.39215684
32.85110855	2.41176462
32.85110855	2.70588231
32.85525131	2.47058821
32.85921097	2.49019599
32.86333084	2.41176462
32.86751556	2.25490189
32.86751556	2.39215684
32.87157822	2.54901958
32.87551880	2.56862736
32.87968826	2.56862736
32.87968826	2.60784316
32.88382721	2.45098042
32.88791275	2.27450991
32.89193726	2.29411769
32.89618683	2.52941179
32.89618683	2.72549009
32.90016937	2.74509811
32.90427399	2.80392146
32.90845871	2.68627453
32.90845871	2.37254906
32.91239166	2.45098042
32.91656876	2.64705873
32.92064285	2.62745094
32.92483521	2.50980401
32.92883301	2.66666675
32.93292999	2.78431368
32.93703461	2.74509811
32.93703461	2.58823538
32.94123459	2.52941179
32.94516754	2.58823538
32.94928741	2.68627453
32.95342636	2.64705873
32.95758057	2.64705873
32.96155167	2.49019599
32.96572876	2.31372547
32.96572876	2.58823538
32.96986008	2.78431368
32.97397232	2.74509811
32.97803497	2.62745094
32.98220444	2.64705873
32.98621750	2.74509811
32.99028015	2.56862736
32.99442673	2.54901958
32.99442673	2.74509811
32.99843979	2.82352948
33.00255203	2.64705873
33.00670624	2.52941179
33.01081085	2.78431368
33.01494598	2.78431368
33.01898575	2.76470590
33.02321243	2.64705873
33.02321243	2.70588231
33.02726746	2.84313726
33.03139877	2.72549009
33.03547668	2.70588231
33.03951645	2.78431368
33.04358673	2.78431368
33.04769897	2.74509811
33.05179596	2.78431368
33.05179596	2.64705873
33.05586624	2.66666675
33.05995560	2.72549009
33.06407547	2.74509811
33.06825256	2.70588231
33.07226563	2.62745094
33.07640457	2.58823538
33.08052444	2.80392146
33.08052444	2.86274505
33.08462906	2.80392146
33.08878326	2.78431368
33.09276199	2.66666675
33.09276199	2.49019599
33.09682846	2.23529410
33.10094833	2.74509811
33.10508347	2.88235283
33.10926056	2.82352948
33.10926056	2.82352948
33.11320114	2.68627453
33.11732483	2.54901958
33.12145233	2.50980401
33.12145233	2.52941179
33.12545013	2.49019599
33.12958527	2.60784316
33.13373184	2.68627453
33.13778687	2.66666675
33.13778687	2.62745094
33.14179993	2.58823538
33.14591217	2.47058821
33.15023041	2.41176462
33.15023041	2.52941179
33.15427780	2.66666675
33.15833282	2.70588231
33.16232300	2.64705873
33.16645050	2.54901958
33.16645050	2.33333325
33.17063522	2.43137264
33.17465973	2.50980401
33.17881393	2.68627453
33.17881393	2.76470590
33.18281937	2.74509811
33.18689728	2.66666675
33.19112396	2.66666675
33.19521332	2.60784316
33.19521332	2.62745094
33.19918442	2.64705873
33.20332336	2.52941179
33.20744324	2.52941179
33.20744324	2.68627453
33.21156311	2.68627453
33.21553802	2.70588231
33.21965790	2.66666675
33.22381973	2.60784316
33.22381973	2.56862736
33.22789001	2.68627453
33.23194504	2.64705873
33.23613358	2.64705873
33.23613358	2.64705873
33.24019623	2.60784316
33.24433899	2.45098042
33.24832916	2.56862736
33.25246811	2.80392146
33.25246811	2.76470590
33.25658798	2.60784316
33.26069260	2.56862736
33.26489258	2.62745094
33.26489258	2.72549009
33.26885223	2.66666675
33.27293777	2.72549009
33.27709198	2.78431368
33.28126144	2.68627453
33.28126144	2.54901958
33.28526688	2.62745094
33.28935623	2.58823538
33.29351807	2.58823538
33.29351807	2.70588231
33.29758072	2.66666675
33.30170059	2.76470590
33.30570602	2.68627453
33.30988312	2.64705873
33.30988312	2.54901958
33.31394577	2.60784316
33.31810760	2.52941179
33.32218170	2.62745094
33.32218170	2.66666675
33.32613754	2.66666675
33.33032227	2.54901958
33.33454132	2.56862736
33.33852386	2.76470590
33.34253693	2.66666675
33.34666824	2.66666675
33.35086060	2.66666675
33.35086060	2.64705873
33.35500717	2.50980401
33.35897064	2.52941179
33.36319733	2.49019599
33.36720276	2.70588231
33.37139130	2.80392146
33.37534714	2.78431368
33.37944412	2.68627453
33.37944412	2.52941179
33.38361359	2.43137264
33.38772583	2.37254906
33.39191818	2.58823538
33.39588547	2.88235283
33.40001297	2.74509811
33.40414047	2.62745094
33.40827942	2.54901958
33.40827942	2.52941179
33.41225815	2.60784316
33.41638184	2.58823538
33.42046738	2.62745094
33.42461395	2.52941179
33.42869949	2.49019599
33.43269730	2.50980401
33.43682861	2.60784316
33.43682861	2.66666675
33.44100571	2.70588231
33.44506836	2.72549009
33.44919586	2.66666675
33.45317078	2.39215684
33.45735550	2.37254906
33.46142960	2.64705873
33.46569443	2.66666675
33.46569443	2.58823538
33.46961975	2.52941179
33.47374725	2.64705873
33.47787094	2.60784316
33.47787094	2.58823538
33.48201370	2.45098042
33.48598862	2.37254906
33.49021530	2.43137264
33.49424362	2.62745094
33.49424362	2.60784316
33.49834061	2.60784316
33.50232315	2.64705873
33.50645828	2.54901958
33.50645828	2.31372547
33.51061249	2.58823538
33.51469421	2.72549009
33.51869965	2.74509811
33.52281952	2.68627453
33.52281952	2.62745094
33.52699661	2.50980401
33.53113556	2.39215684
33.53524780	2.54901958
33.53524780	2.68627453
33.53921890	2.66666675
33.54333878	2.56862736
33.54748535	2.50980401
33.55158997	2.49019599
33.55158997	2.50980401
33.55559540	2.64705873
33.55974197	2.60784316
33.56381989	2.52941179
33.56381989	2.60784316
33.56794739	2.72549009
33.57202148	2.64705873
33.57619858	2.54901958
33.58019638	2.58823538
33.58019638	2.66666675
33.58435822	2.64705873
33.58847046	2.62745094
33.59246063	2.64705873
33.59246063	2.64705873
33.59658051	2.68627453
33.60068512	2.68627453
33.60482788	2.52941179
33.60895157	2.41176462
33.60895157	2.49019599
33.61285782	2.47058821
33.61704254	2.58823538
33.62113190	2.72549009
33.62113190	2.76470590
33.62519455	2.62745094
33.62929916	2.31372547
33.63345337	2.50980401
33.63759613	2.72549009
33.63759613	2.78431368
33.64173508	2.60784316
33.64566803	2.50980401
33.64981079	2.52941179
33.64981079	2.35294127
33.65401459	2.54901958
33.65814209	2.66666675
33.66226196	2.62745094
33.66639328	2.52941179
33.66639328	2.62745094
33.67033386	2.58823538
33.67449570	2.52941179
33.67858887	2.50980401
33.67858887	2.56862736
33.68257141	2.64705873
33.68673325	2.58823538
33.69086075	2.41176462
33.69494247	2.50980401
33.69494247	2.60784316
33.69894791	2.58823538
33.70323181	2.62745094
33.70727921	2.49019599
33.70727921	2.52941179
33.71139145	2.56862736
33.71538925	2.62745094
33.71945953	2.50980401
33.72359848	2.60784316
33.72774124	2.68627453
33.73188782	2.56862736
33.73582840	2.47058821
33.73582840	2.64705873
33.73999023	2.72549009
33.74409485	2.68627453
33.74819565	2.74509811
33.75219345	2.52941179
33.75636292	2.45098042
33.76046753	2.54901958
33.76457214	2.54901958
33.76457214	2.52941179
33.76856995	2.72549009
33.77270126	2.66666675
33.77682114	2.66666675
33.78093338	2.50980401
33.78507614	2.62745094
33.78915787	2.58823538
33.79317093	2.58823538
33.79317093	2.60784316
33.79726028	2.56862736
33.80141449	2.64705873
33.80561447	2.60784316
33.80957031	2.72549009
33.81373215	2.68627453
33.81789398	2.49019599
33.82201385	2.41176462
33.82201385	2.49019599
33.82597351	2.60784316
33.83025742	2.68627453
33.83423615	2.64705873
33.83836746	2.58823538
33.84237289	2.56862736
33.84650803	2.52941179
33.85062027	2.33333325
33.85062027	2.52941179
33.85476685	2.72549009
33.85887909	2.66666675
33.86282730	2.68627453
33.86282730	2.52941179
33.86694717	2.54901958
33.87107849	2.66666675
33.87522125	2.60784316
33.87918854	2.52941179
33.87918854	2.49019599
33.88331604	2.50980401
33.88746262	2.47058821
33.89154053	2.54901958
33.89154053	2.56862736
33.89557266	2.52941179
33.89967728	2.37254906
33.90381241	2.49019599
33.90795135	2.60784316
33.90795135	2.60784316
33.91193771	2.60784316
33.91619873	2.66666675
33.92036819	2.72549009
33.92036819	2.62745094
33.92433167	2.56862736
33.92849350	2.56862736
33.93246078	2.56862736
33.93656540	2.49019599
33.93656540	2.43137264
33.94072723	2.37254906
33.94483948	2.47058821
33.94895935	2.54901958
33.94895935	2.62745094
33.95288086	2.56862736
33.95709991	2.56862736
33.96119690	2.60784316
33.96530151	2.54901958
33.96530151	2.45098042
33.96927643	2.27450991
33.97342682	2.45098042
33.97753143	2.66666675
33.97753143	2.62745094
33.98167038	2.60784316
33.98566055	2.62745094
33.98983765	2.60784316
33.99394989	2.58823538
33.99394989	2.50980401
33.99807739	2.43137264
34.00218964	2.47058821
34.00619507	2.47058821
34.00619507	2.58823538
34.01037598	2.56862736
34.01443863	2.50980401
34.01856613	2.58823538
34.02267838	2.52941179
34.02267838	2.58823538
34.02667618	2.50980401
34.03079605	2.50980401
34.03495026	2.62745094
34.03495026	2.54901958
34.03899765	2.50980401
34.04326630	2.56862736
34.04724503	2.45098042
34.05137634	2.47058821
34.05137634	2.50980401
34.05535507	2.56862736
34.05953598	2.60784316
34.06359863	2.54901958
34.06359863	2.49019599
34.06769180	2.52941179
34.07186508	2.49019599
34.07582855	2.60784316
34.07994080	2.54901958
34.08406067	2.56862736
34.08823013	2.54901958
34.09234238	2.58823538
34.09234238	2.62745094
34.09637451	2.74509811
34.10050201	2.72549009
34.10462189	2.68627453
34.10873413	2.54901958
34.11273956	2.64705873
34.11683655	2.70588231
34.12095642	2.66666675
34.12095642	2.68627453
34.12510300	2.68627453
34.12919998	2.50980401
34.13319016	2.47058821
34.13725281	2.62745094
34.14142990	2.74509811
34.14557648	2.72549009
34.14958191	2.72549009
34.14958191	2.64705873
34.15364456	2.52941179
34.15782166	2.66666675
34.16191864	2.80392146
34.16589737	2.58823538
34.17020798	2.56862736
34.17425537	2.52941179
34.17831802	2.58823538
34.17831802	2.72549009
34.18231583	2.68627453
34.18648529	2.58823538
34.19054031	2.47058821
34.19462204	2.66666675
34.19879150	2.70588231
34.20279694	2.66666675
34.20695877	2.64705873
34.20695877	2.64705873
34.21107864	2.60784316
34.21519852	2.62745094
34.21931839	2.58823538
34.21931839	2.49019599
34.22329330	2.39215684
34.22742081	2.47058821
34.23155975	2.66666675
34.23570251	2.70588231
34.23570251	2.64705873
34.23967743	2.60784316
34.24374771	2.58823538
34.24796677	2.49019599
34.24796677	2.43137264
34.25195694	2.54901958
34.25617599	2.58823538
34.26017380	2.70588231
34.26431656	2.74509811
34.26431656	2.64705873
34.26844788	2.58823538
34.27241898	2.56862736
34.27652359	2.50980401
34.27652359	2.50980401
34.28065109	2.54901958
34.28479767	2.49019599
34.28878021	2.50980401
34.29294968	2.54901958
34.29294968	2.64705873
34.29710388	2.74509811
34.30118942	2.74509811
34.30530167	2.66666675
34.30530167	2.60784316
34.30929184	2.49019599
34.31334686	2.56862736
34.31752396	2.54901958
34.32169342	2.50980401
34.32169342	2.66666675
34.32569885	2.64705873
34.32979584	2.58823538
34.33391571	2.56862736
34.33391571	2.56862736
34.33802032	2.56862736
34.34218979	2.62745094
34.34617233	2.66666675
34.35031891	2.58823538
34.35031891	2.56862736
34.35440445	2.56862736
34.35853577	2.62745094
34.36266327	2.56862736
34.36266327	2.56862736
34.36661911	2.58823538
34.37078857	2.58823538
34.37496567	2.54901958
34.37907028	2.54901958
34.37907028	2.60784316
34.38320160	2.62745094
34.38718033	2.52941179
34.39131927	2.50980401
34.39131927	2.54901958
34.39543152	2.60784316
34.39942932	2.62745094
34.40357208	2.64705873
34.40774536	2.62745094
34.40774536	2.54901958
34.41184616	2.52941179
34.41587067	2.52941179
34.41999817	2.50980401
34.41999817	2.50980401
34.42407990	2.52941179
34.42823029	2.52941179
34.43232727	2.47058821
34.43630981	2.45098042
34.43630981	2.52941179
34.44047928	2.54901958
34.44459152	2.47058821
34.44868851	2.47058821
34.44868851	2.45098042
34.45276642	2.39215684
34.45686340	2.43137264
34.46099854	2.47058821
34.46512985	2.43137264
34.46924973	2.43137264
34.47321320	2.45098042
34.47735214	2.47058821
34.47735214	2.43137264
34.48150253	2.47058821
34.48560715	2.56862736
34.48957443	2.56862736
34.49371719	2.52941179
34.49787140	2.49019599
34.50195313	2.49019599
34.50606537	2.47058821
34.50606537	2.45098042
34.51022720	2.45098042
34.51420593	2.45098042
34.51831055	2.45098042
34.52238083	2.43137264
34.52640533	2.43137264
34.53054047	2.47058821
34.53467178	2.50980401
34.53467178	2.54901958
34.53878403	2.50980401
34.54276276	2.49019599
34.54691696	2.52941179
34.55104446	2.52941179
34.55519867	2.49019599
34.55924606	2.52941179
34.56333542	2.50980401
34.56333542	2.49019599
34.56742859	2.47058821
34.57159805	2.49019599
34.57571411	2.47058821
34.57968521	2.54901958
34.58380508	2.52941179
34.58795929	2.50980401
34.59204865	2.52941179
34.59204865	2.52941179
34.59619904	2.54901958
34.60018158	2.52941179
34.60429382	2.49019599
34.60429382	2.47058821
34.60849762	2.47058821
34.61248779	2.54901958
34.61655807	2.56862736
34.62067795	2.54901958
34.62067795	2.60784316
34.62483215	2.58823538
34.62900925	2.56862736
34.63295746	2.56862736
34.63295746	2.54901958
34.63718414	2.52941179
34.64113235	2.50980401
34.64526367	2.54901958
34.64940643	2.64705873
34.64940643	2.76470590
34.65343857	2.78431368
34.65759277	2.66666675
34.66167831	2.56862736
34.66167831	2.52941179
34.66582489	2.56862736
34.66980743	2.52941179
34.67396545	2.47058821
34.67807007	2.50980401
34.67807007	2.50980401
34.68220139	2.52941179
34.68617249	2.52941179
34.69030380	2.50980401
34.69030380	2.52941179
34.69443130	2.56862736
34.69850922	2.52941179
34.70249939	2.52941179
34.70665359	2.54901958
34.70665359	2.54901958
34.71075058	2.52941179
34.71491241	2.54901958
34.71908188	2.58823538
34.71908188	2.62745094
34.72320938	2.62745094
34.72716522	2.64705873
34.73132706	2.64705873
34.73545456	2.62745094
34.73545456	2.58823538
34.73945236	2.60784316
34.74359894	2.64705873
34.74771881	2.64705873
34.74771881	2.58823538
34.75187302	2.60784316
34.75586319	2.68627453
34.75999069	2.64705873
34.76420212	2.60784316
34.76420212	2.60784316
34.76818466	2.56862736
34.77231216	2.60784316
34.77636719	2.60784316
34.77636719	2.56862736
34.78042984	2.54901958
34.78455734	2.54901958
34.78875351	2.54901958
34.79282379	2.56862736
34.79282379	2.58823538
34.79679108	2.60784316
34.80092621	2.58823538
34.80505371	2.60784316
34.80505371	2.58823538
34.80913544	2.60784316
34.81316376	2.60784316
34.81723785	2.62745094
34.82144928	2.60784316
34.82144928	2.60784316
34.82551956	2.60784316
34.82954788	2.64705873
34.83367157	2.64705873
34.83367157	2.62745094
34.83777618	2.62745094
34.84196854	2.60784316
34.84591675	2.60784316
34.85016251	2.58823538
34.85016251	2.58823538
34.85435486	2.58823538
34.85838699	2.60784316
34.86249924	2.58823538
34.86249924	2.58823538
34.86646271	2.60784316
34.87055206	2.58823538
34.87474442	2.62745094
34.87881470	2.66666675
34.88280487	2.66666675
34.88692474	2.66666675
34.89112091	2.68627453
34.89112091	2.70588231
34.89518356	2.66666675
34.89918137	2.66666675
34.90335083	2.68627453
34.90744781	2.70588231
34.91156769	2.68627453
34.91568756	2.68627453
34.91969299	2.74509811
34.91969299	2.68627453
34.92383194	2.66666675
34.92791748	2.78431368
34.93204880	2.84313726
34.93618393	2.78431368
34.94020844	2.72549009
34.94434357	2.74509811
34.94844055	2.74509811
34.94844055	2.74509811
34.95243073	2.76470590
34.95655823	2.76470590
34.96073532	2.70588231
34.96480942	2.84313726
34.96892929	2.82352948
34.97291946	2.76470590
34.97718430	2.78431368
34.97718430	2.78431368
34.98115921	2.76470590
34.98530579	2.78431368
34.98943329	2.80392146
34.99336624	2.86274505
34.99752808	2.84313726
35.00159836	2.78431368
35.00581741	2.86274505
35.00581741	2.92156863
35.00980759	2.84313726
35.01392746	2.78431368
35.01805496	2.76470590
35.01805496	2.76470590
35.02215958	2.76470590
35.02616501	2.78431368
35.03028488	2.80392146
35.03443146	2.82352948
35.03443146	2.84313726
35.03854370	2.86274505
35.04256439	2.84313726
35.04670334	2.86274505
35.04670334	2.90196085
35.05085754	2.90196085
35.05494308	2.86274505
35.05907440	2.88235283
35.06321716	2.80392146
35.06321716	2.76470590
35.06720734	2.72549009
35.07131195	2.72549009
35.07547379	2.74509811
35.07547379	2.76470590
35.07944489	2.78431368
35.08354950	2.78431368
35.08773041	2.78431368
35.09188080	2.80392146
35.09188080	2.82352948
35.09581375	2.80392146
35.09991074	2.72549009
35.10420990	2.80392146
35.10420990	2.76470590
35.10820770	2.80392146
35.11229706	2.82352948
35.11626816	2.82352948
35.12039185	2.84313726
35.12039185	2.82352948
35.12459946	2.80392146
35.12871170	2.80392146
35.13282394	2.82352948
35.13282394	2.82352948
35.13679886	2.82352948
35.14093399	2.82352948
35.14511490	2.84313726
35.14917755	2.90196085
35.14917755	2.88235283
35.15317535	2.84313726
35.15730286	2.82352948
35.16142273	2.78431368
35.16142273	2.80392146
35.16554260	2.80392146
35.16955948	2.76470590
35.17369461	2.76470590
35.17784119	2.78431368
35.17784119	2.78431368
35.18196106	2.76470590
35.18596649	2.78431368
35.19019318	2.78431368
35.19019318	2.74509811
35.19419861	2.76470590
35.19835281	2.72549009
35.20243454	2.70588231
35.20643234	2.72549009
35.20643234	2.74509811
35.21055222	2.74509811
35.21474457	2.72549009
35.21879959	2.70588231
35.21879959	2.66666675
35.22282410	2.66666675
35.22693634	2.64705873
35.23116302	2.62745094
35.23522568	2.64705873
35.23522568	2.66666675
35.23941040	2.66666675
35.24332809	2.66666675
35.24745560	2.66666675
35.24745560	2.66666675
35.25160980	2.68627453
35.25570679	2.66666675
35.25973511	2.64705873
35.26382446	2.68627453
35.26792908	2.64705873
35.27205658	2.66666675
35.27624130	2.64705873
35.27624130	2.60784316
35.28017426	2.62745094
35.28429413	2.62745094
35.28846359	2.60784316
35.29277420	2.60784316
35.29655838	2.56862736
35.30072784	2.56862736
35.30482483	2.60784316
35.30482483	2.62745094
35.30911636	2.60784316
35.31292725	2.58823538
35.31721878	2.58823538
35.32114410	2.62745094
35.32532120	2.62745094
35.32949066	2.64705873
35.33342361	2.66666675
35.33342361	2.64705873
35.33760071	2.66666675
35.34167099	2.66666675
35.34579468	2.64705873
35.34978104	2.66666675
35.35391998	2.68627453
35.35815430	2.66666675
35.36224365	2.62745094
35.36224365	2.62745094
35.36622238	2.62745094
35.37036896	2.62745094
35.37449646	2.64705873
35.37860870	2.68627453
35.38255692	2.66666675
35.38668060	2.68627453
35.39085007	2.66666675
35.39085007	2.66666675
35.39494324	2.68627453
35.39904785	2.68627453
35.40317917	2.66666675
35.40317917	2.64705873
35.40721512	2.68627453
35.41135406	2.68627453
35.41550064	2.70588231
35.41962051	2.70588231
35.41962051	2.70588231
35.42358398	2.68627453
35.42773056	2.68627453
35.43185043	2.70588231
35.43185043	2.66666675
35.43599701	2.66666675
35.44006729	2.66666675
35.44407272	2.66666675
35.44821930	2.64705873
35.44821930	2.66666675
35.45229721	2.66666675
35.45630264	2.70588231
35.46049881	2.70588231
35.46049881	2.70588231
35.46455383	2.70588231
35.46867371	2.68627453
35.47283554	2.66666675
35.47683334	2.66666675
35.47683334	2.66666675
35.48091888	2.66666675
35.48503876	2.66666675
35.48919296	2.66666675
35.48919296	2.66666675
35.49322510	2.68627453
35.49729538	2.68627453
35.50135803	2.68627453
35.50563431	2.66666675
35.50563431	2.64705873
35.50952530	2.64705873
35.51365662	2.66666675
35.51779175	2.66666675
35.51779175	2.70588231
35.52195358	2.70588231
35.52605057	2.68627453
35.53015518	2.64705873
35.53412628	2.64705873
35.53412628	2.66666675
35.53825760	2.64705873
35.54243469	2.64705873
35.54661942	2.64705873
35.54661942	2.66666675
35.55061722	2.68627453
35.55472183	2.68627453
35.55882645	2.70588231
35.56297302	2.70588231
35.56297302	2.70588231
35.56693649	2.70588231
35.57108307	2.70588231
35.57521820	2.72549009
35.57521820	2.72549009
35.57932281	2.68627453
35.58329391	2.68627453
35.58742523	2.68627453
35.59160233	2.68627453
35.59160233	2.68627453
35.59573746	2.64705873
35.59974670	2.64705873
35.60385895	2.64705873
35.60385895	2.64705873
35.60802078	2.62745094
35.61207581	2.62745094
35.61620331	2.62745094
35.62023163	2.62745094
35.62438583	2.62745094
35.62844086	2.60784316
35.63259506	2.62745094
35.63259506	2.64705873
35.63655090	2.64705873
35.64067078	2.62745094
35.64486694	2.62745094
35.64894485	2.64705873
35.65291977	2.64705873
35.65712357	2.64705873
35.66114426	2.62745094
35.66114426	2.64705873
35.66530609	2.66666675
35.66930389	2.66666675
35.67340088	2.66666675
35.67752075	2.62745094
35.68164825	2.60784316
35.68579483	2.62745094
35.68989944	2.60784316
35.68989944	2.60784316
35.69412613	2.62745094
35.69808197	2.62745094
35.70220947	2.60784316
35.70629883	2.58823538
35.71029663	2.60784316
35.71446609	2.62745094
35.71861267	2.60784316
35.71861267	2.56862736
35.72269058	2.58823538
35.72661591	2.60784316
35.73082352	2.64705873
35.73491287	2.68627453
35.73905945	2.64705873
35.74317169	2.60784316
35.74712753	2.58823538
35.74712753	2.60784316
35.75126266	2.62745094
35.75537491	2.66666675
35.75955582	2.66666675
35.75955582	2.62745094
35.76358414	2.60784316
35.76768875	2.60784316
35.77189255	2.60784316
35.77596283	2.62745094
35.77596283	2.64705873
35.77988052	2.64705873
35.78410721	2.62745094
35.78821182	2.58823538
35.78821182	2.60784316
35.79232407	2.60784316
35.79627228	2.62745094
35.80040741	2.60784316
35.80451965	2.60784316
35.80451965	2.60784316
35.80868912	2.60784316
35.81280899	2.64705873
35.81679916	2.64705873
35.81679916	2.64705873
35.82094574	2.60784316
35.82509995	2.58823538
35.82916260	2.58823538
35.83323288	2.62745094
35.83323288	2.62745094
35.83728027	2.64705873
35.84140015	2.60784316
35.84548950	2.60784316
35.84548950	2.60784316
35.84956741	2.60784316
35.85366440	2.60784316
35.85782623	2.60784316
35.86190414	2.60784316
35.86190414	2.66666675
35.86605835	2.64705873
35.87017822	2.62745094
35.87422562	2.64705873
35.87422562	2.64705873
35.87836456	2.64705873
35.88248444	2.64705873
35.88646317	2.64705873
35.89058685	2.62745094
35.89058685	2.62745094
35.89493561	2.62745094
35.89881134	2.64705873
35.90297318	2.64705873
35.90297318	2.64705873
35.90692139	2.64705873
35.91104126	2.64705873
35.91522598	2.66666675
35.91930008	2.68627453
35.91930008	2.66666675
35.92332077	2.62745094
35.92739105	2.62745094
35.93154526	2.64705873
35.93154526	2.64705873
35.93567276	2.64705873
35.93967056	2.66666675
35.94374466	2.66666675
35.94788742	2.64705873
35.94788742	2.66666675
35.95201874	2.66666675
35.95615387	2.66666675
35.96020889	2.64705873
35.96020889	2.62745094
35.96433640	2.62745094
35.96843338	2.62745094
35.97249603	2.66666675
35.97659302	2.68627453
35.97659302	2.66666675
35.98069000	2.66666675
35.98479462	2.62745094
35.98893738	2.60784316
35.98893738	2.60784316
35.99296188	2.62745094
35.99711609	2.60784316
36.00117111	2.58823538
36.00527191	2.58823538
36.00942612	2.60784316
36.01338196	2.60784316
36.01747894	2.58823538
36.01747894	2.58823538
36.02161789	2.58823538
36.02571106	2.54901958
36.02976608	2.56862736
36.03389740	2.60784316
36.03802490	2.60784316
36.04218674	2.56862736
36.04627609	2.56862736
36.04627609	2.58823538
36.05023956	2.62745094
36.05435944	2.62745094
36.05857849	2.60784316
36.06267548	2.60784316
36.06671524	2.60784316
36.07084274	2.60784316
36.07493973	2.60784316
36.07493973	2.62745094
36.07908249	2.62745094
36.08317184	2.64705873
36.08716965	2.62745094
36.09132385	2.64705873
36.09543610	2.66666675
36.09941483	2.64705873
36.10354614	2.64705873
36.10354614	2.64705873
36.10771561	2.62745094
36.11178589	2.62745094
36.11590576	2.64705873
36.11988831	2.64705873
36.12419510	2.66666675
36.12816238	2.62745094
36.13225937	2.64705873
36.13225937	2.62745094
36.13640213	2.62745094
36.14038467	2.62745094
36.14454651	2.60784316
36.14454651	2.60784316
36.14870834	2.62745094
36.15281296	2.62745094
36.15679169	2.64705873
36.16097260	2.62745094
36.16097260	2.60784316
36.16505814	2.62745094
36.16916275	2.62745094
36.17323303	2.62745094
36.17323303	2.62745094
36.17726517	2.62745094
36.18139267	2.62745094
36.18554688	2.62745094
36.18966675	2.60784316
36.18966675	2.60784316
36.19365692	2.60784316
36.19771957	2.60784316
36.20185852	2.60784316
36.20185852	2.60784316
36.20603561	2.58823538
36.21010590	2.60784316
36.21413803	2.62745094
36.21829987	2.62745094
36.21829987	2.60784316
36.22242737	2.56862736
36.22643280	2.56862736
36.23058701	2.58823538
36.23058701	2.60784316
36.23471451	2.58823538
36.23881149	2.58823538
36.24297333	2.58823538
36.24694443	2.58823538
36.24694443	2.62745094
36.25121307	2.66666675
36.25523758	2.66666675
36.25932312	2.64705873
36.25932312	2.62745094
36.26332855	2.60784316
36.26742554	2.62745094
36.27153778	2.64705873
36.27566528	2.64705873
36.27566528	2.64705873
36.27972031	2.64705873
36.28378677	2.64705873
36.28790665	2.64705873
36.28790665	2.64705873
36.29211807	2.64705873
36.29612350	2.64705873
36.30015182	2.64705873
36.30424881	2.64705873
36.30424881	2.64705873
36.30843353	2.64705873
36.31255722	2.66666675
36.31667709	2.68627453
36.31667709	2.64705873
36.32068253	2.62745094
36.32479477	2.64705873
36.32892990	2.64705873
36.33308411	2.64705873
36.33308411	2.62745094
36.33718872	2.62745094
36.34116364	2.64705873
36.34533310	2.64705873
36.34533310	2.64705873
36.34944534	2.62745094
36.35340881	2.62745094
36.35760498	2.62745094
36.36166000	2.62745094
36.36166000	2.60784316
36.36577988	2.62745094
36.36980057	2.64705873
36.37392044	2.64705873
36.37392044	2.62745094
36.37801743	2.64705873
36.38219452	2.62745094
36.38631439	2.64705873
36.39033890	2.64705873
36.39444351	2.62745094
36.39855576	2.62745094
36.40270996	2.62745094
36.40270996	2.62745094
36.40667343	2.62745094
36.41078568	2.62745094
36.41497040	2.62745094
36.41906738	2.62745094
36.42318726	2.64705873
36.42716217	2.62745094
36.43133163	2.62745094
36.43133163	2.62745094
36.43548584	2.62745094
36.43957138	2.62745094
36.44359589	2.62745094
36.44770050	2.64705873
36.45183563	2.64705873
36.45592499	2.64705873
36.46006775	2.62745094
36.46006775	2.62745094
36.46420670	2.60784316
36.46817780	2.62745094
36.47229004	2.64705873
36.47641373	2.66666675
36.48047638	2.62745094
36.48453903	2.62745094
36.48872375	2.62745094
36.48872375	2.60784316
36.49285507	2.60784316
36.49678421	2.58823538
36.50091553	2.60784316
36.50505066	2.58823538
36.50916290	2.60784316
36.51310349	2.62745094
36.51727295	2.60784316
36.51727295	2.60784316
36.52132034	2.58823538
36.52553940	2.58823538
36.52959442	2.60784316
36.52959442	2.62745094
36.53364182	2.60784316
36.53775406	2.60784316
36.54193878	2.60784316
36.54602814	2.60784316
36.54602814	2.60784316
36.55015564	2.60784316
36.55418777	2.60784316
36.55834198	2.60784316
36.55834198	2.60784316
36.56246185	2.58823538
36.56657410	2.58823538
36.57057953	2.58823538
36.57478333	2.58823538
36.57478333	2.58823538
36.57881927	2.58823538
36.58295822	2.60784316
36.58691406	2.58823538
36.58691406	2.60784316
36.59115601	2.60784316
36.59521866	2.60784316
36.59928513	2.62745094
36.60341263	2.60784316
36.60341263	2.60784316
36.60747528	2.58823538
36.61161423	2.60784316
36.61567688	2.60784316
36.61567688	2.60784316
36.61985397	2.58823538
36.62390900	2.58823538
36.62796402	2.58823538
36.63209915	2.60784316
36.63209915	2.60784316
36.63623047	2.60784316
36.64017105	2.60784316
36.64431381	2.60784316
36.64431381	2.60784316
36.64843750	2.60784316
36.65255737	2.62745094
36.65653610	2.62745094
36.66065979	2.60784316
36.66065979	2.62745094
36.66485214	2.62745094
36.66891479	2.62745094
36.67306137	2.62745094
36.67306137	2.60784316
36.67721558	2.60784316
36.68116379	2.62745094
36.68527603	2.60784316
36.68941879	2.60784316
36.68941879	2.60784316
36.69341660	2.60784316
36.69747162	2.60784316
36.70164108	2.60784316
36.70164108	2.58823538
36.70575333	2.56862736
36.70990753	2.56862736
36.71384811	2.58823538
36.71813965	2.58823538
36.71813965	2.58823538
36.72219467	2.56862736
36.72629166	2.56862736
36.73027420	2.56862736
36.73027420	2.58823538
36.73440170	2.58823538
36.73850632	2.58823538
36.74268341	2.56862736
36.74685287	2.56862736
36.75082016	2.56862736
36.75495529	2.58823538
36.75928116	2.58823538
36.75928116	2.56862736
36.76317978	2.56862736
36.76720428	2.54901958
36.77128220	2.54901958
36.77541351	2.56862736
36.77957153	2.56862736
36.78356171	2.54901958
36.78765869	2.52941179
36.78765869	2.52941179
36.79180527	2.54901958
36.79594803	2.54901958
36.80004501	2.52941179
36.80420685	2.52941179
36.80819702	2.54901958
36.81243896	2.54901958
36.81636429	2.56862736
36.81636429	2.56862736
36.82037735	2.54901958
36.82454681	2.52941179
36.82884979	2.54901958
36.83280563	2.54901958
36.83681870	2.54901958
36.84090805	2.54901958
36.84515762	2.52941179
36.84515762	2.52941179
36.84922028	2.52941179
36.85328674	2.54901958
36.85730743	2.54901958
36.86139679	2.54901958
36.86553955	2.52941179
36.86964417	2.52941179
36.87378311	2.54901958
36.87378311	2.54901958
36.87776184	2.52941179
36.88190842	2.52941179
36.88602066	2.52941179
36.88602066	2.52941179
36.89016342	2.52941179
36.89414597	2.52941179
36.89831543	2.52941179
36.90242767	2.52941179
36.90242767	2.52941179
36.90655899	2.52941179
36.91053009	2.54901958
36.91465759	2.54901958
36.91465759	2.54901958
36.91884613	2.54901958
36.92293167	2.56862736
36.92690659	2.54901958
36.93114090	2.52941179
36.93114090	2.54901958
36.93513870	2.54901958
36.93929291	2.54901958
36.94341278	2.54901958
36.94341278	2.54901958
36.94735336	2.54901958
36.95149231	2.54901958
36.95564270	2.54901958
36.95996857	2.56862736
36.95996857	2.54901958
36.96380234	2.52941179
36.96794891	2.52941179
36.97203445	2.54901958
36.97203445	2.54901958
36.97615814	2.54901958
36.98023605	2.52941179
36.98419952	2.52941179
36.98841858	2.52941179
36.98841858	2.52941179
36.99247360	2.52941179
36.99666214	2.56862736
37.00065231	2.56862736
37.00065231	2.54901958
37.00473785	2.52941179
37.00891495	2.50980401
37.01329041	2.52941179
37.01716614	2.54901958
37.01716614	2.56862736
37.02117920	2.54901958
37.02532578	2.54901958
37.02942276	2.54901958
37.02942276	2.56862736
37.03342056	2.60784316
37.03761292	2.60784316
37.04166031	2.60784316
37.04578781	2.58823538
37.04578781	2.60784316
37.04996490	2.62745094
37.05391693	2.64705873
37.05818176	2.64705873
37.05818176	2.62745094
37.06212234	2.62745094
37.06636047	2.62745094
37.07033157	2.62745094
37.07451630	2.62745094
37.07451630	2.62745094
37.07858276	2.64705873
37.08270264	2.62745094
37.08682251	2.62745094
37.08682251	2.62745094
37.09085464	2.60784316
37.09494781	2.62745094
37.09898758	2.62745094
37.10312271	2.62745094
37.10312271	2.60784316
37.10705566	2.60784316
37.11122513	2.60784316
37.11535645	2.60784316
37.11535645	2.60784316
37.11949921	2.60784316
37.12351608	2.60784316
37.12760162	2.58823538
37.13172913	2.60784316
37.13585281	2.58823538
37.14001465	2.58823538
37.14411545	2.56862736
37.14411545	2.56862736
37.14810562	2.56862736
37.15222549	2.56862736
37.15635681	2.54901958
37.16046143	2.56862736
37.16449738	2.56862736
37.16857910	2.56862736
37.17276382	2.58823538
37.17276382	2.60784316
37.17671204	2.58823538
37.18089294	2.58823538
37.18515778	2.58823538
37.18916321	2.58823538
37.19328690	2.58823538
37.19725800	2.56862736
37.20144653	2.56862736
37.20144653	2.56862736
37.20553970	2.56862736
37.20972061	2.58823538
37.21411133	2.58823538
37.21783066	2.60784316
37.22195816	2.60784316
37.22602844	2.60784316
37.23015594	2.60784316
37.23015594	2.60784316
37.23419571	2.60784316
37.23830032	2.60784316
37.24240494	2.62745094
37.24653244	2.60784316
37.25056458	2.60784316
37.25468445	2.62745094
37.25886154	2.62745094
37.25886154	2.62745094
37.26297379	2.62745094
37.26696396	2.62745094
37.27119827	2.60784316
37.27119827	2.60784316
37.27520752	2.60784316
37.27929306	2.60784316
37.28333282	2.60784316
37.28741837	2.58823538
37.28741837	2.58823538
37.29153061	2.60784316
37.29569244	2.60784316
37.29980469	2.60784316
37.29980469	2.58823538
37.30377197	2.58823538
37.30792618	2.58823538
37.31206131	2.60784316
37.31610107	2.60784316
37.31610107	2.60784316
37.32014847	2.58823538
37.32428360	2.58823538
37.32840347	2.58823538
37.32840347	2.58823538
37.33251572	2.58823538
37.33666229	2.58823538
37.34063339	2.58823538
37.34481430	2.58823538
37.34481430	2.56862736
37.34891891	2.56862736
37.35306931	2.58823538
37.35715866	2.58823538
37.35715866	2.58823538
37.36115646	2.58823538
37.36531830	2.56862736
37.36945343	2.58823538
37.37355804	2.58823538
37.37355804	2.60784316
37.37746811	2.60784316
37.38167572	2.58823538
37.38577271	2.58823538
37.38577271	2.56862736
37.38991928	2.56862736
37.39389801	2.58823538
37.39809418	2.58823538
37.40216446	2.56862736
37.40216446	2.56862736
37.40632629	2.56862736
37.41028214	2.56862736
37.41440582	2.58823538
37.41440582	2.58823538
37.41858292	2.58823538
37.42270279	2.56862736
37.42677307	2.56862736
37.43077850	2.58823538
37.43077850	2.60784316
37.43489075	2.58823538
37.43904495	2.58823538
37.44314957	2.58823538
37.44314957	2.58823538
37.44714737	2.56862736
37.45129395	2.58823538
37.45538712	2.58823538
37.45951843	2.56862736
37.45951843	2.58823538
37.46353912	2.56862736
37.46769333	2.56862736
37.47179794	2.58823538
37.47179794	2.58823538
37.47590256	2.60784316
37.48008728	2.62745094
37.48417664	2.62745094
37.48813248	2.62745094
37.48813248	2.64705873
37.49228668	2.64705873
37.49643707	2.64705873
37.50047684	2.64705873
37.50047684	2.62745094
37.50448227	2.62745094
37.50865936	2.60784316
37.51278305	2.62745094
37.51691055	2.62745094
37.52087402	2.60784316
37.52503586	2.60784316
37.52914047	2.60784316
37.52914047	2.60784316
37.53328705	2.60784316
37.53733444	2.60784316
37.54141235	2.60784316
37.54545212	2.58823538
37.54963684	2.58823538
37.55357742	2.58823538
37.55776596	2.60784316
37.55776596	2.60784316
37.56190109	2.58823538
37.56602859	2.56862736
37.57015991	2.56862736
37.57415771	2.60784316
37.57826996	2.58823538
37.58238220	2.56862736
37.58650208	2.56862736
37.58650208	2.56862736
37.59049988	2.58823538
37.59462738	2.58823538
37.59888077	2.56862736
37.60287094	2.56862736
37.60683441	2.58823538
37.61111832	2.58823538
37.61518097	2.58823538
37.61518097	2.58823538
37.61928558	2.60784316
37.62345505	2.60784316
37.62746048	2.62745094
37.63157272	2.62745094
37.63568497	2.64705873
37.63978195	2.62745094
37.64393616	2.62745094
37.64393616	2.60784316
37.64794159	2.58823538
37.65204620	2.60784316
37.65616608	2.60784316
37.65616608	2.60784316
37.66022110	2.60784316
37.66431046	2.58823538
37.66844559	2.60784316
37.67253494	2.60784316
37.67253494	2.62745094
37.67668915	2.60784316
37.68070221	2.58823538
37.68479919	2.58823538
37.68479919	2.58823538
37.68891907	2.58823538
37.69302368	2.58823538
37.69719315	2.58823538
37.70114136	2.56862736
37.70114136	2.56862736
37.70527649	2.54901958
37.70939636	2.54901958
37.71353531	2.54901958
37.71353531	2.54901958
37.71749115	2.54901958
37.72161102	2.54901958
37.72571564	2.52941179
37.72989273	2.52941179
37.72989273	2.52941179
37.73383331	2.54901958
37.73820114	2.54901958
37.74216461	2.54901958
37.74216461	2.52941179
37.74626923	2.52941179
37.75040817	2.54901958
37.75436401	2.52941179
37.75854874	2.52941179
37.75854874	2.52941179
37.76271057	2.52941179
37.76684189	2.54901958
37.77085495	2.54901958
37.77085495	2.54901958
37.77495956	2.54901958
37.77905273	2.54901958
37.78319931	2.54901958
37.78729630	2.56862736
37.78729630	2.54901958
37.79126740	2.54901958
37.79539871	2.56862736
37.79969025	2.56862736
37.79969025	2.56862736
37.80352402	2.56862736
37.80767059	2.56862736
37.81182098	2.56862736
37.81593323	2.58823538
37.81593323	2.60784316
37.82009506	2.60784316
37.82424164	2.58823538
37.82819748	2.58823538
37.82819748	2.58823538
37.83233643	2.62745094
37.83644867	2.62745094
37.84045410	2.60784316
37.84458160	2.58823538
37.84458160	2.58823538
37.84867859	2.58823538
37.85281372	2.58823538
37.85690308	2.58823538
37.85690308	2.58823538
37.86089325	2.58823538
37.86521149	2.58823538
37.86916733	2.58823538
37.87329483	2.56862736
37.87329483	2.58823538
37.87728500	2.60784316
37.88137436	2.60784316
37.88552475	2.58823538
37.88552475	2.58823538
37.88964844	2.58823538
37.89365387	2.58823538
37.89776611	2.60784316
37.90182877	2.58823538
37.90600586	2.56862736
37.91012573	2.58823538
37.91409302	2.62745094
37.91409302	2.62745094
37.91824341	2.60784316
37.92241287	2.60784316
37.92651749	2.60784316
37.93051529	2.60784316
37.93463516	2.60784316
37.93875122	2.60784316
37.94288635	2.60784316
37.94288635	2.58823538
37.94703293	2.58823538
37.95119476	2.58823538
37.95521545	2.56862736
37.95932007	2.56862736
37.96343231	2.58823538
37.96744537	2.56862736
37.97153473	2.56862736
37.97153473	2.56862736
37.97564697	2.58823538
37.97976685	2.58823538
37.98395920	2.58823538
37.98791122	2.58823538
37.99203873	2.60784316
37.99620819	2.60784316
38.00038528	2.60784316
38.00038528	2.58823538
38.00422668	2.56862736
38.00843811	2.56862736
38.01252747	2.56862736
38.01665497	2.56862736
38.02061844	2.56862736
38.02479935	2.56862736
38.02890396	2.56862736
38.02890396	2.58823538
38.03303909	2.60784316
38.03718567	2.58823538
38.04116440	2.58823538
38.04116440	2.58823538
38.04526901	2.58823538
38.04940033	2.58823538
38.05358505	2.58823538
38.05766296	2.58823538
38.05766296	2.60784316
38.06164551	2.60784316
38.06573486	2.60784316
38.06989670	2.60784316
38.06989670	2.62745094
38.07391739	2.62745094
38.07815933	2.62745094
38.08208466	2.62745094
38.08626938	2.60784316
38.08626938	2.60784316
38.09026718	2.60784316
38.09436417	2.62745094
38.09849167	2.62745094
38.09849167	2.60784316
38.10267258	2.60784316
38.10681534	2.60784316
38.11079025	2.62745094
38.11489487	2.62745094
38.11489487	2.62745094
38.11900711	2.62745094
38.12308502	2.62745094
38.12724686	2.62745094
38.12724686	2.62745094
38.13124466	2.60784316
38.13536453	2.62745094
38.13951874	2.60784316
38.14362335	2.60784316
38.14362335	2.60784316
38.14761353	2.58823538
38.15173340	2.60784316
38.15587997	2.60784316
38.15587997	2.58823538
38.16001511	2.56862736
38.16407776	2.56862736
38.16809082	2.56862736
38.17219543	2.58823538
38.17219543	2.56862736
38.17636490	2.56862736
38.18048859	2.56862736
38.18450928	2.58823538
38.18450928	2.60784316
38.18865585	2.60784316
38.19277573	2.62745094
38.19688797	2.62745094
38.20085907	2.62745094
38.20085907	2.62745094
38.20511246	2.60784316
38.20914459	2.60784316
38.21324539	2.60784316
38.21324539	2.60784316
38.21732712	2.60784316
38.22143936	2.60784316
38.22556686	2.58823538
38.22968674	2.58823538
38.22968674	2.56862736
38.23378372	2.56862736
38.23781586	2.56862736
38.24190903	2.56862736
38.24190903	2.56862736
38.24601364	2.54901958
38.25014496	2.56862736
38.25420761	2.56862736
38.25828552	2.56862736
38.25828552	2.56862736
38.26239777	2.56862736
38.26657867	2.58823538
38.27070618	2.58823538
38.27070618	2.60784316
38.27473450	2.60784316
38.27890396	2.60784316
38.28294373	2.58823538
38.28705597	2.56862736
38.29121780	2.56862736
38.29517365	2.56862736
38.29932785	2.54901958
38.29932785	2.54901958
38.30344772	2.54901958
38.30747223	2.54901958
38.31154251	2.56862736
38.31564713	2.54901958
38.31979370	2.54901958
38.32393646	2.54901958
38.32789230	2.54901958
38.32789230	2.54901958
38.33190155	2.56862736
38.33610153	2.56862736
38.34027100	2.56862736
38.34424591	2.52941179
38.34840012	2.52941179
38.35249329	2.54901958
38.35662460	2.54901958
38.35662460	2.56862736
38.36063766	2.56862736
38.36483002	2.56862736
38.36895370	2.56862736
38.37304688	2.60784316
38.37714386	2.60784316
38.38114166	2.60784316
38.38525391	2.60784316
38.38525391	2.58823538
38.38933563	2.58823538
38.39348602	2.60784316
38.39764023	2.60784316
38.39764023	2.62745094
38.40166473	2.60784316
38.40573502	2.60784316
38.40985489	2.62745094
38.41399384	2.62745094
38.41399384	2.62745094
38.41816330	2.60784316
38.42217636	2.58823538
38.42630386	2.58823538
38.42630386	2.58823538
38.43039322	2.60784316
38.43439102	2.58823538
38.43858337	2.58823538
38.44263840	2.58823538
38.44263840	2.56862736
38.44676971	2.56862736
38.45074081	2.56862736
38.45488739	2.58823538
38.45488739	2.58823538
38.45900726	2.56862736
38.46314240	2.56862736
38.46708298	2.56862736
38.47122192	2.58823538
38.47122192	2.58823538
38.47539139	2.58823538
38.47969055	2.58823538
38.48366547	2.56862736
38.48366547	2.54901958
38.48767853	2.54901958
38.49176788	2.56862736
38.49588776	2.56862736
38.50009155	2.56862736
38.50009155	2.56862736
38.50413513	2.56862736
38.50815964	2.56862736
38.51227188	2.56862736
38.51227188	2.58823538
38.51648331	2.56862736
38.52051163	2.54901958
38.52451706	2.54901958
38.52862930	2.54901958
38.52862930	2.56862736
38.53279877	2.56862736
38.53683090	2.56862736
38.54103470	2.58823538
38.54103470	2.56862736
38.54512787	2.56862736
38.54939651	2.56862736
38.55327225	2.58823538
38.55741882	2.60784316
38.55741882	2.60784316
38.56138992	2.58823538
38.56550980	2.58823538
38.56969833	2.56862736
38.56969833	2.58823538
38.57378387	2.58823538
38.57775879	2.58823538
38.58187103	2.58823538
38.58601761	2.56862736
38.58601761	2.56862736
38.59013748	2.56862736
38.59413528	2.58823538
38.59824753	2.60784316
38.59824753	2.60784316
38.60237503	2.60784316
38.60654449	2.60784316
38.61072922	2.58823538
38.61464691	2.58823538
38.61464691	2.58823538
38.61876678	2.58823538
38.62292862	2.56862736
38.62704086	2.54901958
38.62704086	2.56862736
38.63113785	2.56862736
38.63513565	2.56862736
38.63932800	2.56862736
38.64346695	2.56862736
38.64744568	2.54901958
38.65156174	2.54901958
38.65562439	2.54901958
38.65562439	2.54901958
38.65984344	2.54901958
38.66394806	2.52941179
38.66790390	2.52941179
38.67218781	2.52941179
38.67614365	2.52941179
38.68026352	2.52941179
38.68442535	2.52941179
38.68442535	2.52941179
38.68837357	2.52941179
38.69244766	2.54901958
38.69661713	2.54901958
38.70077896	2.56862736
38.70475006	2.54901958
38.70887756	2.54901958
38.71300125	2.56862736
38.71300125	2.56862736
38.71714401	2.56862736
38.72113419	2.56862736
38.72527313	2.56862736
38.72942352	2.56862736
38.73365021	2.56862736
38.73752594	2.58823538
38.74168015	2.56862736
38.74168015	2.56862736
38.74575806	2.58823538
38.74988174	2.58823538
38.75408936	2.56862736
38.75408936	2.56862736
38.75816345	2.56862736
38.76213455	2.56862736
38.76626587	2.56862736
38.77042770	2.56862736
38.77042770	2.58823538
38.77446365	2.58823538
38.77857590	2.58823538
38.78267288	2.58823538
38.78267288	2.58823538
38.78682709	2.56862736
38.79082489	2.58823538
38.79491806	2.58823538
38.79920578	2.60784316
38.79920578	2.60784316
38.80315399	2.58823538
38.80731583	2.58823538
38.81127167	2.58823538
38.81127167	2.60784316
38.81538391	2.60784316
38.81951141	2.62745094
38.82369995	2.62745094
38.82776260	2.60784316
38.82776260	2.60784316
38.83176041	2.62745094
38.83589554	2.62745094
38.84010696	2.62745094
38.84010696	2.60784316
38.84420395	2.60784316
38.84816742	2.60784316
38.85227203	2.60784316
38.85637665	2.60784316
38.85637665	2.62745094
38.86054611	2.58823538
38.86452103	2.56862736
38.86867142	2.58823538
38.86867142	2.58823538
38.87281036	2.60784316
38.87689590	2.58823538
38.88088608	2.60784316
38.88516998	2.58823538
38.88516998	2.56862736
38.88917542	2.56862736
38.89325714	2.58823538
38.89738464	2.60784316
38.89738464	2.60784316
38.90142441	2.58823538
38.90552902	2.58823538
38.90962601	2.58823538
38.91374588	2.58823538
38.91374588	2.60784316
38.91771698	2.60784316
38.92188644	2.60784316
38.92596817	2.58823538
38.92596817	2.60784316
38.93010330	2.60784316
38.93408585	2.62745094
38.93827057	2.62745094
38.94239044	2.60784316
38.94239044	2.60784316
38.94652176	2.60784316
38.95062637	2.62745094
38.95458984	2.64705873
38.95458984	2.64705873
38.95875168	2.62745094
38.96286392	2.60784316
38.96704865	2.60784316
38.97114563	2.60784316
38.97114563	2.60784316
38.97515869	2.60784316
38.97931290	2.60784316
38.98340225	2.60784316
38.98340225	2.58823538
38.98743057	2.58823538
38.99152756	2.60784316
38.99563217	2.60784316
38.99980164	2.58823538
39.00389862	2.56862736
39.00790405	2.56862736
39.01213074	2.56862736
39.01213074	2.58823538
39.01617050	2.58823538
39.02026367	2.58823538
39.02441025	2.56862736
39.02833557	2.58823538
39.03247070	2.58823538
39.03659058	2.58823538
39.04075241	2.58823538
39.04075241	2.58823538
39.04474258	2.58823538
39.04884720	2.56862736
39.05302429	2.58823538
39.05717850	2.58823538
39.06113434	2.58823538
39.06521606	2.58823538
39.06943512	2.58823538
39.06943512	2.58823538
39.07357025	2.58823538
39.07750320	2.58823538
39.08156586	2.58823538
39.08573532	2.58823538
39.08989716	2.60784316
39.09400940	2.60784316
39.09814835	2.60784316
39.09814835	2.60784316
39.10214615	2.62745094
39.10629654	2.62745094
39.11032867	2.60784316
39.11431885	2.62745094
39.11853027	2.60784316
39.12260056	2.60784316
39.12678528	2.58823538
39.12678528	2.56862736
39.13076782	2.56862736
39.13486481	2.56862736
39.13912964	2.56862736
39.13912964	2.56862736
39.14311981	2.56862736
39.14725113	2.56862736
39.15130615	2.56862736
39.15541077	2.56862736
39.15541077	2.56862736
39.15955353	2.56862736
39.16370773	2.56862736
39.16775513	2.54901958
39.16775513	2.56862736
39.17181015	2.56862736
39.17589569	2.56862736
39.18000793	2.56862736
39.18421936	2.56862736
39.18421936	2.56862736
39.18814468	2.56862736
39.19226456	2.56862736
39.19637680	2.58823538
39.19637680	2.58823538
39.20054626	2.58823538
39.20452881	2.56862736
39.20866394	2.58823538
39.21277618	2.56862736
39.21277618	2.56862736
39.21688843	2.58823538
39.22087097	2.58823538
39.22513199	2.58823538
39.22513199	2.58823538
39.22910309	2.58823538
39.23325729	2.60784316
39.23741913	2.60784316
39.24157333	2.58823538
39.24157333	2.58823538
39.24551392	2.58823538
39.24967575	2.58823538
39.25375366	2.58823538
39.25375366	2.58823538
39.25781631	2.58823538
39.26187897	2.56862736
39.26592636	2.56862736
39.27010345	2.56862736
39.27010345	2.58823538
39.27415848	2.58823538
39.27822495	2.58823538
39.28233719	2.58823538
39.28233719	2.58823538
39.28648758	2.60784316
39.29068375	2.60784316
39.29463959	2.60784316
39.29876709	2.60784316
39.29876709	2.60784316
39.30294037	2.58823538
39.30703354	2.58823538
39.31118011	2.58823538
39.31118011	2.58823538
39.31514359	2.60784316
39.31925583	2.58823538
39.32341766	2.58823538
39.32752228	2.58823538
39.32752228	2.58823538
39.33150482	2.60784316
39.33567429	2.60784316
39.33979416	2.60784316
39.33979416	2.60784316
39.34394836	2.58823538
39.34794617	2.58823538
39.35219574	2.60784316
39.35616302	2.60784316
39.35616302	2.60784316
39.36031723	2.60784316
39.36444473	2.60784316
39.36840057	2.60784316
39.36840057	2.58823538
39.37254715	2.60784316
39.37665939	2.60784316
39.38076401	2.60784316
39.38479996	2.58823538
39.38893127	2.58823538
39.39300919	2.60784316
39.39712906	2.60784316
39.39712906	2.62745094
39.40116882	2.60784316
39.40542984	2.58823538
39.40943527	2.58823538
39.41354752	2.60784316
39.41756821	2.60784316
39.42168045	2.60784316
39.42579269	2.58823538
39.42579269	2.58823538
39.42993927	2.58823538
39.43406677	2.60784316
39.43816376	2.60784316
39.44216919	2.58823538
39.44627380	2.58823538
39.45041275	2.58823538
39.45454788	2.58823538
39.45454788	2.58823538
39.45853806	2.58823538
39.46262360	2.58823538
39.46667099	2.56862736
39.47085190	2.58823538
39.47488022	2.58823538
39.47899246	2.58823538
39.48309708	2.56862736
39.48309708	2.56862736
39.48722458	2.56862736
39.49126434	2.56862736
39.49536896	2.58823538
39.49536896	2.58823538
39.49948883	2.56862736
39.50363541	2.56862736
39.50764084	2.56862736
39.51181030	2.56862736
39.51181030	2.58823538
39.51589966	2.58823538
39.52001190	2.58823538
39.52416992	2.58823538
39.52416992	2.58823538
39.52815247	2.58823538
39.53224945	2.58823538
39.53629684	2.60784316
39.54048157	2.60784316
39.54048157	2.58823538
39.54448700	2.58823538
39.54859924	2.58823538
39.55274582	2.60784316
39.55274582	2.60784316
39.55690002	2.60784316
39.56087875	2.58823538
39.56510544	2.58823538
39.56916046	2.58823538
39.56916046	2.58823538
39.57329941	2.60784316
39.57739639	2.62745094
39.58137512	2.62745094
39.58137512	2.60784316
39.58555603	2.60784316
39.58959961	2.60784316
39.59368134	2.62745094
39.59785843	2.64705873
39.59785843	2.64705873
39.60187149	2.62745094
39.60603333	2.62745094
39.61015320	2.62745094
39.61015320	2.62745094
39.61412811	2.62745094
39.61823273	2.62745094
39.62236023	2.60784316
39.62648010	2.60784316
39.62648010	2.60784316
39.63056183	2.58823538
39.63460922	2.60784316
39.63871384	2.60784316
39.63871384	2.62745094
39.64286423	2.62745094
39.64701080	2.60784316
39.65119553	2.62745094
39.65508652	2.62745094
39.65508652	2.62745094
39.65926743	2.62745094
39.66338730	2.62745094
39.66749954	2.60784316
39.66749954	2.60784316
39.67147064	2.60784316
39.67560959	2.60784316
39.67974472	2.60784316
39.68390656	2.60784316
39.68390656	2.60784316
39.68792343	2.60784316
39.69213104	2.60784316
39.69612122	2.62745094
39.69612122	2.62745094
39.70026016	2.60784316
39.70451736	2.58823538
39.70840073	2.58823538
39.71250534	2.58823538
39.71250534	2.58823538
39.71666718	2.58823538
39.72077942	2.58823538
39.72490692	2.58823538
39.72490692	2.58823538
39.72884750	2.56862736
39.73298645	2.58823538
39.73717880	2.60784316
39.74130249	2.58823538
39.74528885	2.58823538
39.74942780	2.58823538
39.75353241	2.60784316
39.75353241	2.60784316
39.75766754	2.60784316
39.76165009	2.60784316
39.76574707	2.58823538
39.76987457	2.58823538
39.77405167	2.60784316
39.77812195	2.60784316
39.78211975	2.60784316
39.78211975	2.58823538
39.78629303	2.58823538
39.79047012	2.58823538
39.79456329	2.58823538
39.79854584	2.58823538
39.80267334	2.58823538
39.80677032	2.58823538
39.81092453	2.60784316
39.81092453	2.60784316
39.81488800	2.62745094
39.81912613	2.60784316
39.82316971	2.60784316
39.82728577	2.60784316
39.83124924	2.60784316
39.83536911	2.62745094
39.83948898	2.62745094
39.83948898	2.62745094
39.84362793	2.62745094
39.84775543	2.62745094
39.85182571	2.62745094
39.85585785	2.62745094
39.86000443	2.62745094
39.86413193	2.62745094
39.86829376	2.60784316
39.86829376	2.60784316
39.87224197	2.60784316
39.87643433	2.58823538
39.88050079	2.58823538
39.88050079	2.58823538
39.88449860	2.58823538
39.88869858	2.58823538
39.89268112	2.58823538
39.89685822	2.60784316
39.89685822	2.60784316
39.90101242	2.60784316
39.90521622	2.60784316
39.90909576	2.60784316
39.90909576	2.60784316
39.91324234	2.60784316
39.91736221	2.60784316
39.92134476	2.60784316
39.92549133	2.58823538
39.92549133	2.58823538
39.92961884	2.58823538
39.93373871	2.58823538
39.93782043	2.60784316
39.93782043	2.60784316
39.94185638	2.60784316
39.94593048	2.60784316
39.95011520	2.62745094
39.95417786	2.64705873
39.95417786	2.64705873
39.95824051	2.62745094
39.96237946	2.62745094
39.96649170	2.60784316
39.96649170	2.58823538
39.97063446	2.56862736
39.97463989	2.56862736
39.97873688	2.54901958
39.98284912	2.52941179
39.98284912	2.52941179
39.98702621	2.52941179
39.99117279	2.52941179
39.99514771	2.50980401
39.99514771	2.52941179
39.99926758	2.54901958
40.00342178	2.52941179
40.00751495	2.50980401
40.01166916	2.52941179
40.01166916	2.54901958
40.01564407	2.54901958
40.01974869	2.54901958
40.02390671	2.54901958
40.02390671	2.52941179
40.02790451	2.52941179
40.03211594	2.54901958
40.03612137	2.54901958
40.04022598	2.52941179
40.04022598	2.52941179
40.04437256	2.52941179
40.04833603	2.50980401
40.05263138	2.50980401
40.05263138	2.50980401
40.05658722	2.50980401
40.06075668	2.50980401
40.06474686	2.52941179
40.06903076	2.52941179
40.06903076	2.52941179
40.07306671	2.54901958
40.07715607	2.54901958
40.08125305	2.54901958
40.08125305	2.54901958
40.08525085	2.52941179
40.08943558	2.52941179
40.09349823	2.54901958
40.09761810	2.52941179
40.10166550	2.52941179
40.10590363	2.52941179
40.10981750	2.50980401
40.10981750	2.52941179
40.11399460	2.52941179
40.11812592	2.54901958
40.12210464	2.54901958
40.12623596	2.52941179
40.13029861	2.54901958
40.13448334	2.54901958
40.13843918	2.54901958
40.13843918	2.54901958
40.14260864	2.52941179
40.14676285	2.52941179
40.15086746	2.54901958
40.15486526	2.56862736
40.15914154	2.54901958
40.16310501	2.54901958
40.16722870	2.54901958
40.16722870	2.54901958
40.17129135	2.54901958
40.17541122	2.56862736
40.17953110	2.56862736
40.18361282	2.54901958
40.18776321	2.52941179
40.19178772	2.54901958
40.19589233	2.54901958
40.19589233	2.54901958
40.19999695	2.54901958
40.20416641	2.54901958
40.20828629	2.52941179
40.21224213	2.56862736
40.21636963	2.56862736
40.22052383	2.56862736
40.22466278	2.56862736
40.22466278	2.54901958
40.22861099	2.54901958
40.23273849	2.56862736
40.23685837	2.56862736
40.23685837	2.56862736
40.24097824	2.54901958
40.24510193	2.54901958
40.24908829	2.54901958
40.25340652	2.56862736
40.25340652	2.56862736
40.25738907	2.56862736
40.26140976	2.56862736
40.26549149	2.56862736
40.26549149	2.54901958
40.26961899	2.56862736
40.27380371	2.58823538
40.27787018	2.58823538
40.28186798	2.56862736
40.28186798	2.56862736
40.28596115	2.56862736
40.29009247	2.54901958
40.29424286	2.56862736
40.29424286	2.56862736
40.29822540	2.56862736
40.30235291	2.54901958
40.30677795	2.54901958
40.31066895	2.56862736
40.31066895	2.58823538
40.31465912	2.56862736
40.31874847	2.56862736
40.32287598	2.58823538
40.32287598	2.56862736
40.32706070	2.56862736
40.33112335	2.56862736
40.33511353	2.58823538
40.33926010	2.58823538
40.33926010	2.56862736
40.34337234	2.56862736
40.34749985	2.56862736
40.35161972	2.58823538
40.35161972	2.56862736
40.35563660	2.56862736
40.35972214	2.58823538
40.36384201	2.56862736
40.36799622	2.56862736
40.36799622	2.56862736
40.37215042	2.56862736
40.37617111	2.58823538
40.38026047	2.56862736
40.38026047	2.56862736
40.38438034	2.56862736
40.38841248	2.54901958
40.39250565	2.56862736
40.39661026	2.56862736
40.39661026	2.56862736
40.40074158	2.56862736
40.40480423	2.56862736
40.40883255	2.56862736
40.40883255	2.56862736
40.41297913	2.56862736
40.41713333	2.56862736
40.42120361	2.56862736
40.42521667	2.54901958
40.42521667	2.54901958
40.42932892	2.54901958
40.43348312	2.54901958
40.43763733	2.56862736
40.43763733	2.58823538
40.44164276	2.56862736
40.44578171	2.56862736
40.44986725	2.56862736
40.45398712	2.56862736
40.45815659	2.56862736
40.46213150	2.56862736
40.46623611	2.56862736
40.46623611	2.56862736
40.47036362	2.56862736
40.47454071	2.56862736
40.47853851	2.54901958
40.48268509	2.54901958
40.48678970	2.56862736
40.49098206	2.58823538
40.49506378	2.58823538
40.49506378	2.58823538
40.49918365	2.58823538
40.50317383	2.58823538
40.50743484	2.58823538
40.51141357	2.58823538
40.51543808	2.58823538
40.51950073	2.58823538
40.52362061	2.58823538
40.52362061	2.58823538
40.52778244	2.58823538
40.53179550	2.58823538
40.53587723	2.58823538
40.54001999	2.58823538
40.54415894	2.58823538
40.54818726	2.58823538
40.55229187	2.58823538
40.55229187	2.58823538
40.55640411	2.60784316
40.56055832	2.60784316
40.56465530	2.58823538
40.56862640	2.56862736
40.57275772	2.58823538
40.57690811	2.58823538
40.58098984	2.58823538
40.58098984	2.56862736
40.58511734	2.56862736
40.58915710	2.56862736
40.59325409	2.56862736
40.59325409	2.56862736
40.59735489	2.56862736
40.60148621	2.56862736
40.60553360	2.56862736
40.60961151	2.56862736
40.60961151	2.54901958
40.61375046	2.54901958
40.61780548	2.56862736
40.62184143	2.56862736
40.62184143	2.56862736
40.62615204	2.56862736
40.63011551	2.58823538
40.63424683	2.58823538
40.63853836	2.60784316
40.63853836	2.60784316
40.64239502	2.58823538
40.64652634	2.58823538
40.65061188	2.58823538
40.65061188	2.60784316
40.65475082	2.60784316
40.65877914	2.60784316
40.66288376	2.60784316
40.66698837	2.60784316
40.66698837	2.58823538
40.67110062	2.58823538
40.67512131	2.58823538
40.67922592	2.58823538
40.67922592	2.58823538
40.68334961	2.56862736
40.68751907	2.56862736
40.69145966	2.56862736
40.69557190	2.56862736
40.69557190	2.56862736
40.69970703	2.56862736
40.70386124	2.56862736
40.70825195	2.56862736
40.70825195	2.58823538
40.71212006	2.58823538
40.71614838	2.58823538
40.72023773	2.58823538
40.72436523	2.60784316
40.72436523	2.60784316
40.72843552	2.60784316
40.73248291	2.62745094
40.73661423	2.62745094
40.73661423	2.62745094
40.74073410	2.60784316
40.74486923	2.58823538
40.74884415	2.58823538
40.75311279	2.58823538
40.75311279	2.60784316
40.75712585	2.60784316
40.76123810	2.60784316
40.76524353	2.60784316
40.76524353	2.60784316
40.76933289	2.62745094
40.77350235	2.62745094
40.77766418	2.64705873
40.78174210	2.64705873
40.78174210	2.62745094
40.78573990	2.62745094
40.78990936	2.62745094
40.79400635	2.64705873
40.79400635	2.62745094
40.79811096	2.62745094
40.80211639	2.62745094
40.80630112	2.60784316
40.81036377	2.60784316
40.81036377	2.60784316
40.81455231	2.60784316
40.81852341	2.60784316
40.82262802	2.60784316
40.82262802	2.58823538
40.82675552	2.58823538
40.83090973	2.60784316
40.83499146	2.60784316
40.83911133	2.58823538
40.84315872	2.58823538
40.84729385	2.56862736
40.85137558	2.58823538
40.85137558	2.58823538
40.85531616	2.58823538
40.85946655	2.56862736
40.86360550	2.54901958
40.86774826	2.56862736
40.87170792	2.56862736
40.87586975	2.56862736
40.88011169	2.56862736
40.88011169	2.54901958
40.88409424	2.56862736
40.88814926	2.56862736
40.89229965	2.56862736
40.89636612	2.56862736
40.90048599	2.56862736
40.90465546	2.56862736
40.90855408	2.56862736
40.90855408	2.58823538
40.91265106	2.58823538
40.91689301	2.60784316
40.92093277	2.60784316
40.92512512	2.56862736
40.92908478	2.58823538
40.93323517	2.58823538
40.93734741	2.58823538
40.93734741	2.56862736
40.94155121	2.56862736
40.94554138	2.56862736
40.94964600	2.56862736
40.95378113	2.60784316
40.95789337	2.60784316
40.96189880	2.60784316
40.96611786	2.60784316
40.96611786	2.60784316
40.97014236	2.60784316
40.97427750	2.60784316
40.97838211	2.62745094
40.97838211	2.62745094
40.98235703	2.60784316
40.98648453	2.60784316
40.99065399	2.60784316
40.99480057	2.60784316
40.99480057	2.60784316
40.99877930	2.60784316
41.00291824	2.60784316
41.00704575	2.60784316
41.00704575	2.60784316
41.01114273	2.60784316
41.01515579	2.60784316
41.01924515	2.60784316
41.02334976	2.58823538
41.02334976	2.56862736
41.02754211	2.56862736
41.03163147	2.58823538
41.03561401	2.58823538
41.03561401	2.58823538
41.03968430	2.58823538
41.04382706	2.58823538
41.04798126	2.56862736
41.05211258	2.56862736
41.05211258	2.56862736
41.05611038	2.58823538
41.06021118	2.56862736
41.06436539	2.56862736
41.06436539	2.54901958
41.06835556	2.54901958
41.07250214	2.56862736
41.07664490	2.56862736
41.08075714	2.56862736
41.08075714	2.56862736
41.08486176	2.56862736
41.08883667	2.56862736
41.09303665	2.58823538
41.09303665	2.60784316
41.09707642	2.60784316
41.10123825	2.60784316
41.10524368	2.58823538
41.10932541	2.56862736
41.10932541	2.56862736
41.11344528	2.58823538
41.11757278	2.60784316
41.12170029	2.60784316
41.12170029	2.58823538
41.12572479	2.56862736
41.12983704	2.58823538
41.13396454	2.60784316
41.13811874	2.60784316
41.13811874	2.60784316
41.14203262	2.60784316
41.14617920	2.60784316
41.15033340	2.60784316
41.15033340	2.60784316
41.15439606	2.62745094
41.15846634	2.62745094
41.16262054	2.62745094
41.16674042	2.62745094
41.16674042	2.62745094
41.17080307	2.62745094
41.17500687	2.62745094
41.17911148	2.64705873
41.17911148	2.64705873
41.18310165	2.62745094
41.18730164	2.62745094
41.19143295	2.62745094
41.19543076	2.62745094
41.19955063	2.60784316
41.20365524	2.60784316
41.20778275	2.60784316
41.20778275	2.60784316
41.21175766	2.62745094
41.21590042	2.62745094
41.21998215	2.62745094
41.22410965	2.60784316
41.22827911	2.60784316
41.23226166	2.62745094
41.23635864	2.62745094
41.23635864	2.62745094
41.24043655	2.60784316
41.24459076	2.58823538
41.24860382	2.56862736
41.25272369	2.58823538
41.25687027	2.56862736
41.26097488	2.56862736
41.26511765	2.56862736
41.26511765	2.56862736
41.26910019	2.56862736
41.27324677	2.58823538
41.27740860	2.58823538
41.28149414	2.56862736
41.28548431	2.56862736
41.28966904	2.58823538
41.29375076	2.58823538
41.29375076	2.60784316
41.29786301	2.62745094
41.30186081	2.60784316
41.30615234	2.60784316
41.31007004	2.62745094
41.31424713	2.62745094
41.31837463	2.62745094
41.32237244	2.62745094
41.32237244	2.60784316
41.32643509	2.60784316
41.33059692	2.62745094
41.33467102	2.62745094
41.33887100	2.62745094
41.34281158	2.60784316
41.34697342	2.60784316
41.35112762	2.58823538
41.35112762	2.62745094
41.35513306	2.62745094
41.35921097	2.62745094
41.36334229	2.58823538
41.36334229	2.58823538
41.36749649	2.58823538
41.37178802	2.60784316
41.37561417	2.60784316
41.37972641	2.62745094
41.37972641	2.60784316
41.38386917	2.60784316
41.38800812	2.60784316
41.39214325	2.60784316
41.39214325	2.60784316
41.39611816	2.60784316
41.40023041	2.60784316
41.40435791	2.62745094
41.40853500	2.62745094
41.40853500	2.62745094
41.41247559	2.64705873
41.41660690	2.64705873
41.42077637	2.64705873
41.42077637	2.62745094
41.42498779	2.62745094
41.42880249	2.60784316
41.43311310	2.62745094
41.43710327	2.62745094
41.43710327	2.62745094
41.44123840	2.60784316
41.44519424	2.58823538
41.44931793	2.58823538
41.44931793	2.58823538
41.45345306	2.62745094
41.45762253	2.62745094
41.46176147	2.62745094
41.46574783	2.60784316
41.46574783	2.58823538
41.46985245	2.58823538
41.47398376	2.58823538
41.47816086	2.60784316
41.47816086	2.60784316
41.48210907	2.58823538
41.48622894	2.56862736
41.49035645	2.56862736
41.49448776	2.58823538
41.49448776	2.60784316
41.49848557	2.60784316
41.50258255	2.58823538
41.50674057	2.56862736
41.50674057	2.58823538
41.51089478	2.58823538
41.51503372	2.60784316
41.51911926	2.58823538
41.52309418	2.56862736
41.52309418	2.56862736
41.52722931	2.58823538
41.53141785	2.58823538
41.53549576	2.60784316
41.53549576	2.62745094
41.53952026	2.62745094
41.54359818	2.62745094
41.54774475	2.60784316
41.55186462	2.60784316
41.55186462	2.60784316
41.55587006	2.58823538
41.55991745	2.56862736
41.56409454	2.54901958
41.56409454	2.54901958
41.56820679	2.56862736
41.57236099	2.56862736
41.57635880	2.56862736
41.58051300	2.54901958
41.58460617	2.56862736
41.58860397	2.56862736
41.59279251	2.56862736
41.59279251	2.56862736
41.59685516	2.58823538
41.60097504	2.58823538
41.60520172	2.56862736
41.60914993	2.54901958
41.61322021	2.56862736
41.61734390	2.56862736
41.62146378	2.56862736
41.62146378	2.54901958
41.62551880	2.56862736
41.62960434	2.58823538
41.63371658	2.58823538
41.63781357	2.58823538
41.64181137	2.56862736
41.64607239	2.56862736
41.65002823	2.58823538
41.65002823	2.58823538
41.65419769	2.60784316
41.65830231	2.62745094
41.66233444	2.58823538
41.66647720	2.58823538
41.67061615	2.58823538
41.67476654	2.58823538
41.67885590	2.60784316
41.67885590	2.58823538
41.68281937	2.58823538
41.68696594	2.60784316
41.69116211	2.60784316
41.69528198	2.60784316
41.69927216	2.58823538
41.70341492	2.56862736
41.70751953	2.58823538
41.70751953	2.58823538
41.71161652	2.56862736
41.71562195	2.56862736
41.71974182	2.56862736
41.71974182	2.58823538
41.72385406	2.58823538
41.72797394	2.54901958
41.73216248	2.54901958
41.73610306	2.56862736
41.73610306	2.58823538
41.74024582	2.58823538
41.74441528	2.58823538
41.74854660	2.58823538
41.74854660	2.60784316
41.75251007	2.62745094
41.75667191	2.60784316
41.76077652	2.62745094
41.76489639	2.60784316
41.76489639	2.58823538
41.76890945	2.60784316
41.77321243	2.60784316
41.77713394	2.58823538
41.77713394	2.54901958
41.78123856	2.56862736
41.78522873	2.56862736
41.78935623	2.54901958
41.79354477	2.54901958
41.79354477	2.56862736
41.79759979	2.58823538
41.80172729	2.58823538
41.80575180	2.58823538
41.80575180	2.58823538
41.80994415	2.56862736
41.81393433	2.56862736
41.81809616	2.58823538
41.82223892	2.58823538
41.82223892	2.56862736
41.82627106	2.56862736
41.83034134	2.56862736
41.83445358	2.58823538
41.83445358	2.58823538
41.83845139	2.58823538
41.84263992	2.58823538
41.84676743	2.58823538
41.85087204	2.58823538
41.85087204	2.58823538
41.85497665	2.58823538
41.85909653	2.60784316
41.86317444	2.60784316
41.86317444	2.60784316
41.86722183	2.60784316
41.87132645	2.60784316
41.87535095	2.62745094
41.87947083	2.60784316
41.87947083	2.60784316
41.88359833	2.60784316
41.88769531	2.60784316
41.89187241	2.60784316
41.89187241	2.60784316
41.89582825	2.62745094
41.89995193	2.60784316
41.90412140	2.60784316
41.90824890	2.60784316
41.90824890	2.60784316
41.91224670	2.60784316
41.91640854	2.60784316
41.92047882	2.62745094
41.92047882	2.62745094
41.92460632	2.62745094
41.92857361	2.60784316
41.93265915	2.60784316
41.93681335	2.62745094
41.94098282	2.62745094
41.94508743	2.60784316
41.94910049	2.62745094
41.94910049	2.62745094
41.95318985	2.62745094
41.95730209	2.62745094
41.96147919	2.60784316
41.96557617	2.60784316
41.96957397	2.62745094
41.97370148	2.62745094
41.97782135	2.60784316
41.97782135	2.62745094
41.98189545	2.60784316
41.98607254	2.58823538
41.99004745	2.58823538
41.99419785	2.60784316
41.99835205	2.60784316
42.00231552	2.58823538
42.00646973	2.56862736
42.00646973	2.58823538
42.01058960	2.58823538
42.01467133	2.58823538
42.01883316	2.58823538
42.02283096	2.58823538
42.02719498	2.58823538
42.03111267	2.58823538
42.03526688	2.60784316
42.03526688	2.60784316
42.03922272	2.60784316
42.04335022	2.58823538
42.04754639	2.56862736
42.05160141	2.62745094
42.05562210	2.62745094
42.05971909	2.62745094
42.06383896	2.62745094
42.06383896	2.62745094
42.06796646	2.62745094
42.07210541	2.62745094
42.07608795	2.62745094
42.07608795	2.64705873
42.08023834	2.64705873
42.08434296	2.64705873
42.08844757	2.62745094
42.09247208	2.62745094
42.09247208	2.62745094
42.09665680	2.64705873
42.10072708	2.64705873
42.10484695	2.62745094
42.10484695	2.60784316
42.10888672	2.62745094
42.11304855	2.62745094
42.11708069	2.62745094
42.12122345	2.60784316
42.12122345	2.60784316
42.12538528	2.60784316
42.12931824	2.60784316
42.13345337	2.60784316
42.13345337	2.60784316
42.13753510	2.58823538
42.14174652	2.58823538
42.14575195	2.58823538
42.14987183	2.58823538
42.14987183	2.58823538
42.15403366	2.58823538
42.15840912	2.58823538
42.16225052	2.58823538
42.16225052	2.56862736
42.16626358	2.54901958
42.17034531	2.54901958
42.17447281	2.58823538
42.17866516	2.58823538
42.17866516	2.56862736
42.18259811	2.54901958
42.18671799	2.52941179
42.19087219	2.56862736
42.19087219	2.56862736
42.19501114	2.56862736
42.19910431	2.56862736
42.20310974	2.54901958
42.20724106	2.54901958
42.20724106	2.54901958
42.21149826	2.54901958
42.21546555	2.52941179
42.21940613	2.54901958
42.21940613	2.52941179
42.22359085	2.52941179
42.22768021	2.54901958
42.23182297	2.54901958
42.23598480	2.56862736
42.23598480	2.56862736
42.24013138	2.56862736
42.24408722	2.56862736
42.24820709	2.54901958
42.24820709	2.54901958
42.25219727	2.56862736
42.25634384	2.56862736
42.26050568	2.56862736
42.26462555	2.56862736
42.26462555	2.54901958
42.26875305	2.54901958
42.27275848	2.52941179
42.27687073	2.52941179
42.27687073	2.54901958
42.28101730	2.54901958
42.28511429	2.54901958
42.28909302	2.52941179
42.29325485	2.56862736
42.29736710	2.56862736
42.30147171	2.56862736
42.30561829	2.56862736
42.30561829	2.54901958
42.30963898	2.54901958
42.31372833	2.56862736
42.31791306	2.58823538
42.32215118	2.58823538
42.32617188	2.56862736
42.33010483	2.56862736
42.33425903	2.56862736
42.33425903	2.54901958
42.33839417	2.56862736
42.34240723	2.56862736
42.34649658	2.56862736
42.35062408	2.56862736
42.35472107	2.56862736
42.35884857	2.56862736
42.36288071	2.56862736
42.36288071	2.58823538
42.36698532	2.58823538
42.37110519	2.58823538
42.37525177	2.58823538
42.37926483	2.58823538
42.38341904	2.60784316
42.38756180	2.60784316
42.39167404	2.60784316
42.39167404	2.58823538
42.39560699	2.58823538
42.39974213	2.60784316
42.40388107	2.58823538
42.40804291	2.60784316
42.41222000	2.58823538
42.41614532	2.58823538
42.42028809	2.58823538
42.42028809	2.58823538
42.42437744	2.58823538
42.42847443	2.58823538
42.43263626	2.58823538
42.43263626	2.58823538
42.43664932	2.58823538
42.44075394	2.56862736
42.44478226	2.56862736
42.44900131	2.56862736
42.44900131	2.56862736
42.45309067	2.56862736
42.45710373	2.58823538
42.46121597	2.58823538
42.46121597	2.58823538
42.46535492	2.56862736
42.46934509	2.56862736
42.47347260	2.58823538
42.47760773	2.58823538
42.47760773	2.58823538
42.48176193	2.58823538
42.48571777	2.58823538
42.48985672	2.58823538
42.48985672	2.60784316
42.49401855	2.60784316
42.49804688	2.60784316
42.50215149	2.60784316
42.50622177	2.60784316
42.50622177	2.58823538
42.51036072	2.60784316
42.51447296	2.60784316
42.51857758	2.60784316
42.51857758	2.62745094
42.52256775	2.60784316
42.52668762	2.60784316
42.53079987	2.60784316
42.53492737	2.60784316
42.53492737	2.60784316
42.53903198	2.60784316
42.54308701	2.60784316
42.54714966	2.58823538
42.54714966	2.56862736
42.55131912	2.58823538
42.55550003	2.60784316
42.55945587	2.60784316
42.56359100	2.58823538
42.56359100	2.58823538
42.56770325	2.58823538
42.57182693	2.60784316
42.57598495	2.60784316
42.57598495	2.60784316
42.58010864	2.60784316
42.58410645	2.58823538
42.58822632	2.58823538
42.59234619	2.58823538
42.59234619	2.58823538
42.59639359	2.58823538
42.60047913	2.58823538
42.60459137	2.56862736
42.60459137	2.56862736
42.60876465	2.56862736
42.61278534	2.58823538
42.61681747	2.58823538
42.62098694	2.58823538
42.62098694	2.58823538
42.62517929	2.58823538
42.62908554	2.58823538
42.63317490	2.58823538
42.63317490	2.60784316
42.63731384	2.60784316
42.64149094	2.60784316
42.64558411	2.60784316
42.64955139	2.60784316
42.65372849	2.60784316
42.65786743	2.60784316
42.66199493	2.60784316
42.66199493	2.58823538
42.66613007	2.56862736
42.67010498	2.56862736
42.67421722	2.60784316
42.67837143	2.60784316
42.68237686	2.60784316
42.68648148	2.58823538
42.69071579	2.58823538
42.69071579	2.58823538
42.69477844	2.60784316
42.69890594	2.60784316
42.70289612	2.60784316
42.70717239	2.58823538
42.71113968	2.58823538
42.71523285	2.58823538
42.71937943	2.58823538
42.71937943	2.56862736
42.72336197	2.54901958
42.72746658	2.56862736
42.73164368	2.58823538
42.73574066	2.60784316
42.73974609	2.58823538
42.74376678	2.56862736
42.74790573	2.56862736
42.74790573	2.56862736
42.75209045	2.58823538
42.75609589	2.58823538
42.76018524	2.56862736
42.76432800	2.56862736
42.76846695	2.56862736
42.77244568	2.58823538
42.77662659	2.58823538
42.77662659	2.58823538
42.78076935	2.58823538
42.78485107	2.60784316
42.78896332	2.60784316
42.78896332	2.60784316
42.79309082	2.60784316
42.79714584	2.60784316
42.80113602	2.60784316
42.80535507	2.62745094
42.80535507	2.62745094
42.80933762	2.62745094
42.81350708	2.62745094
42.81755066	2.62745094
42.81755066	2.64705873
42.82167435	2.60784316
42.82569504	2.60784316
42.82986450	2.58823538
42.83412552	2.58823538
42.83412552	2.60784316
42.83815384	2.60784316
42.84212112	2.60784316
42.84624863	2.60784316
42.84624863	2.60784316
42.85037613	2.60784316
42.85446548	2.62745094
42.85858536	2.62745094
42.86271667	2.62745094
42.86271667	2.60784316
42.86677170	2.58823538
42.87084961	2.58823538
42.87498474	2.60784316
42.87498474	2.60784316
42.87913895	2.60784316
42.88312149	2.60784316
42.88726807	2.60784316
42.89151001	2.60784316
42.89151001	2.60784316
42.89553070	2.60784316
42.89951324	2.60784316
42.90363312	2.60784316
42.90363312	2.56862736
42.90779495	2.58823538
42.91189957	2.60784316
42.91585541	2.60784316
42.92013168	2.58823538
42.92013168	2.58823538
42.92411423	2.58823538
42.92821121	2.58823538
42.93239594	2.58823538
42.93239594	2.58823538
42.93635941	2.60784316
42.94048309	2.60784316
42.94457626	2.58823538
42.94875717	2.58823538
42.94875717	2.58823538
42.95277023	2.60784316
42.95687485	2.60784316
42.96103668	2.58823538
42.96103668	2.58823538
42.96514130	2.60784316
42.96914673	2.58823538
42.97322464	2.58823538
42.97737122	2.58823538
42.97737122	2.58823538
42.98148346	2.56862736
42.98559570	2.56862736
42.98959351	2.58823538
42.98959351	2.58823538
42.99371338	2.58823538
42.99789810	2.60784316
43.00196075	2.60784316
43.00610733	2.56862736
43.01014709	2.56862736
43.01428223	2.58823538
43.01840210	2.58823538
43.01840210	2.56862736
43.02250671	2.54901958
43.02649689	2.54901958
43.03064346	2.52941179
43.03476334	2.54901958
43.03885269	2.54901958
43.04288101	2.52941179
43.04709244	2.52941179
43.04709244	2.50980401
43.05113220	2.54901958
43.05521774	2.54901958
43.05921555	2.54901958
43.06333542	2.52941179
43.06752396	2.52941179
43.07157898	2.52941179
43.07576370	2.52941179
43.07576370	2.52941179
43.07968903	2.54901958
43.08381653	2.54901958
43.08793640	2.54901958
43.09209824	2.54901958
43.09604645	2.54901958
43.10025024	2.54901958
43.10437775	2.54901958
43.10437775	2.52941179
43.10853195	2.54901958
43.11252213	2.56862736
43.11664200	2.58823538
43.12076950	2.56862736
43.12485886	2.54901958
43.12896347	2.56862736
43.13313293	2.54901958
43.13313293	2.56862736
43.13710403	2.56862736
43.14123535	2.58823538
43.14533997	2.60784316
43.14533997	2.64705873
43.14937592	2.64705873
43.15349960	2.64705873
43.15767670	2.62745094
43.16177368	2.62745094
43.16177368	2.62745094
43.16575241	2.62745094
43.16988373	2.62745094
43.17416000	2.64705873
43.17416000	2.64705873
43.17812347	2.66666675
43.18225861	2.66666675
43.18621826	2.64705873
43.19033813	2.66666675
43.19033813	2.68627453
43.19446564	2.66666675
43.19865417	2.66666675
43.20270920	2.66666675
43.20270920	2.64705873
43.20672989	2.62745094
43.21088409	2.68627453
43.21502686	2.70588231
43.21915054	2.70588231
43.21915054	2.68627453
43.22312164	2.66666675
43.22728348	2.62745094
43.23134613	2.62745094
43.23134613	2.66666675
43.23550797	2.64705873
43.23949051	2.62745094
43.24358368	2.62745094
43.24768066	2.62745094
43.24768066	2.62745094
43.25177002	2.64705873
43.25582504	2.64705873
43.26007462	2.62745094
43.26007462	2.58823538
43.26408005	2.58823538
43.26818466	2.56862736
43.27233124	2.56862736
43.27636337	2.56862736
43.27636337	2.56862736
43.28043365	2.56862736
43.28455353	2.56862736
43.28869247	2.58823538
43.28869247	2.60784316
43.29272079	2.60784316
43.29681015	2.58823538
43.30088043	2.58823538
43.30508423	2.58823538
43.30508423	2.56862736
43.30901337	2.56862736
43.31320190	2.58823538
43.31730652	2.58823538
43.31730652	2.56862736
43.32144165	2.52941179
43.32560349	2.54901958
43.32956696	2.50980401
43.33369064	2.50980401
43.33369064	2.52941179
43.33778381	2.56862736
43.34195328	2.62745094
43.34613419	2.68627453
43.34613419	2.64705873
43.35012436	2.54901958
43.35422516	2.58823538
43.35840607	2.64705873
43.36248398	2.68627453
43.36650467	2.70588231
43.37060165	2.66666675
43.37470627	2.64705873
43.37470627	2.62745094
43.37883377	2.62745094
43.38288879	2.64705873
43.38709259	2.68627453
43.39111710	2.66666675
43.39526749	2.68627453
43.39920807	2.68627453
43.40332794	2.66666675
43.40332794	2.68627453
43.40749741	2.68627453
43.41160202	2.64705873
43.41564941	2.62745094
43.41968918	2.62745094
43.42379379	2.60784316
43.42795563	2.58823538
43.43201065	2.58823538
43.43201065	2.62745094
43.43605804	2.60784316
43.44024277	2.58823538
43.44433975	2.58823538
43.44845200	2.58823538
43.45244217	2.58823538
43.45661926	2.58823538
43.46068954	2.56862736
43.46068954	2.50980401
43.46488571	2.49019599
43.46900558	2.49019599
43.47314835	2.49019599
43.47740173	2.47058821
43.48122787	2.45098042
43.48538971	2.45098042
43.48947525	2.43137264
43.48947525	2.45098042
43.49346542	2.47058821
43.49762726	2.45098042
43.50173950	2.47058821
43.50173950	2.49019599
43.50585938	2.49019599
43.50983429	2.47058821
43.51411819	2.49019599
43.51809311	2.50980401
43.51809311	2.50980401
43.52225113	2.50980401
43.52624893	2.52941179
43.53060150	2.52941179
43.53060150	2.49019599
43.53446579	2.49019599
43.53861237	2.47058821
43.54264450	2.49019599
43.54692841	2.50980401
43.54692841	2.49019599
43.55084991	2.49019599
43.55500412	2.49019599
43.55908585	2.49019599
43.55908585	2.47058821
43.56307983	2.47058821
43.56726837	2.45098042
43.57131577	2.45098042
43.57546616	2.45098042
43.57546616	2.47058821
43.57944107	2.47058821
43.58358002	2.45098042
43.58765793	2.47058821
43.58765793	2.49019599
43.59186172	2.52941179
43.59580994	2.54901958
43.60000992	2.54901958
43.60409164	2.54901958
43.60409164	2.54901958
43.60821152	2.52941179
43.61233139	2.52941179
43.61649323	2.56862736
43.61649323	2.54901958
43.62049103	2.54901958
43.62461090	2.54901958
43.62870789	2.56862736
43.63282776	2.56862736
43.63282776	2.58823538
43.63689041	2.60784316
43.64097977	2.56862736
43.64507675	2.56862736
43.64507675	2.58823538
43.64919662	2.58823538
43.65319443	2.60784316
43.65735626	2.60784316
43.66144943	2.58823538
43.66144943	2.60784316
43.66557312	2.56862736
43.66955185	2.54901958
43.67370605	2.56862736
43.67370605	2.56862736
43.67803955	2.56862736
43.68200684	2.54901958
43.68611908	2.54901958
43.69008255	2.56862736
43.69008255	2.54901958
43.69420242	2.54901958
43.69837189	2.54901958
43.70238495	2.52941179
43.70238495	2.52941179
43.70643234	2.52941179
43.71057129	2.54901958
43.71468353	2.54901958
43.71881104	2.54901958
43.71881104	2.54901958
43.72282410	2.54901958
43.72706223	2.54901958
43.73135376	2.56862736
43.73135376	2.54901958
43.73521042	2.56862736
43.73920822	2.54901958
43.74337769	2.52941179
43.74758911	2.52941179
43.75162888	2.54901958
43.75576401	2.56862736
43.75970459	2.58823538
43.75970459	2.56862736
43.76382828	2.56862736
43.76802826	2.56862736
43.77212524	2.56862736
43.77621460	2.58823538
43.78020096	2.58823538
43.78436279	2.56862736
43.78863907	2.58823538
43.78863907	2.60784316
43.79265594	2.62745094
43.79660416	2.64705873
43.80075455	2.62745094
43.80487823	2.60784316
43.80902100	2.62745094
43.81312561	2.66666675
43.81710815	2.68627453
43.81710815	2.66666675
43.82125092	2.64705873
43.82534790	2.64705873
43.82945251	2.66666675
43.83345032	2.60784316
43.83763504	2.58823538
43.84172440	2.56862736
43.84582901	2.56862736
43.84582901	2.60784316
43.84981918	2.62745094
43.85395432	2.62745094
43.85810852	2.62745094
43.86219788	2.60784316
43.86617661	2.58823538
43.87031555	2.58823538
43.87445068	2.58823538
43.87445068	2.60784316
43.87868500	2.60784316
43.88261795	2.58823538
43.88673782	2.56862736
43.88673782	2.56862736
43.89085007	2.58823538
43.89494705	2.58823538
43.89911652	2.60784316
43.90310669	2.62745094
43.90310669	2.62745094
43.90723419	2.58823538
43.91132355	2.56862736
43.91549301	2.60784316
43.91549301	2.56862736
43.91946793	2.54901958
43.92360306	2.54901958
43.92770004	2.54901958
43.93196106	2.54901958
43.93196106	2.54901958
43.93592453	2.54901958
43.94007874	2.56862736
43.94405746	2.56862736
43.94405746	2.56862736
43.94819641	2.54901958
43.95232391	2.56862736
43.95637131	2.56862736
43.96049118	2.58823538
43.96049118	2.56862736
43.96463013	2.58823538
43.96876526	2.58823538
43.97286224	2.58823538
43.97286224	2.60784316
43.97686768	2.62745094
43.98100662	2.62745094
43.98514938	2.60784316
43.98921204	2.58823538
43.98921204	2.60784316
43.99326706	2.60784316
43.99735641	2.62745094
44.00149155	2.62745094
44.00149155	2.62745094
44.00558090	2.62745094
44.00957870	2.62745094
44.01374054	2.62745094
44.01784515	2.60784316
44.01784515	2.60784316
44.02194977	2.60784316
