479.67391968	2.43137264
479.67803955	2.37254906
479.67803955	2.41176462
479.68215942	2.56862736
479.68615723	2.62745094
479.69024658	2.58823538
479.69024658	2.60784316
479.69451904	2.64705873
479.69839478	2.64705873
479.70260620	2.60784316
479.70666504	2.54901958
479.70666504	2.54901958
479.71087646	2.56862736
479.71484375	2.41176462
479.71893311	2.29411769
479.71893311	2.47058821
479.72308350	2.60784316
479.72720337	2.58823538
479.73132324	2.52941179
479.73529053	2.52941179
479.73529053	2.50980401
479.73941040	2.50980401
479.74353027	2.52941179
479.74768066	2.49019599
479.74768066	2.41176462
479.75167847	2.25490189
479.75576782	2.23529410
479.75997925	2.43137264
479.76400757	2.52941179
479.76400757	2.50980401
479.76815796	2.41176462
479.77218628	2.37254906
479.77630615	2.45098042
479.77630615	2.49019599
479.78045654	2.58823538
479.78451538	2.56862736
479.78854370	2.50980401
479.79266357	2.45098042
479.79266357	2.41176462
479.79681396	2.41176462
479.80093384	2.33333325
479.80493164	2.39215684
479.80493164	2.49019599
479.80920410	2.52941179
479.81320190	2.50980401
479.81732178	2.52941179
479.82138062	2.54901958
479.82138062	2.54901958
479.82540894	2.50980401
479.82946777	2.47058821
479.83364868	2.39215684
479.83364868	2.35294127
479.83779907	2.43137264
479.84179688	2.45098042
479.84597778	2.45098042
479.85006714	2.41176462
479.85418701	2.39215684
479.85809326	2.39215684
479.86233521	2.49019599
479.86233521	2.50980401
479.86642456	2.52941179
479.87054443	2.54901958
479.87466431	2.56862736
479.87866211	2.47058821
479.88272095	2.39215684
479.88693237	2.37254906
479.89111328	2.45098042
479.89111328	2.43137264
479.89514160	2.39215684
479.89920044	2.47058821
479.90325928	2.54901958
479.90734863	2.43137264
479.91146851	2.39215684
479.91558838	2.41176462
479.91967773	2.54901958
479.91967773	2.50980401
479.92373657	2.35294127
479.92788696	2.17647052
479.93191528	2.29411769
479.93191528	2.43137264
479.93603516	2.62745094
479.94018555	2.70588231
479.94427490	2.72549009
479.94842529	2.66666675
479.94842529	2.62745094
479.95236206	2.58823538
479.95654297	2.58823538
479.96060181	2.62745094
479.96060181	2.64705873
479.96469116	2.64705873
479.96881104	2.64705873
479.97290039	2.56862736
479.97708130	2.52941179
479.97708130	2.56862736
479.98123169	2.54901958
479.98513794	2.56862736
479.98931885	2.56862736
479.98931885	2.50980401
479.99340820	2.49019599
479.99752808	2.52941179
480.00152588	2.60784316
480.00564575	2.50980401
480.00564575	2.29411769
480.00976563	2.33333325
480.01397705	2.66666675
480.01800537	2.76470590
480.01800537	2.74509811
480.02215576	2.66666675
480.02612305	2.64705873
480.03033447	2.66666675
480.03439331	2.66666675
480.03439331	2.62745094
480.03842163	2.56862736
480.04257202	2.50980401
480.04669189	2.47058821
480.04669189	2.43137264
480.05081177	2.41176462
480.05477905	2.35294127
480.05892944	2.37254906
480.06317139	2.43137264
480.06317139	2.49019599
480.06716919	2.45098042
480.07119751	2.33333325
480.07528687	2.29411769
480.07528687	2.27450991
480.07937622	2.31372547
480.08352661	2.35294127
480.08761597	2.27450991
480.09167480	2.21568632
480.09167480	2.17647052
480.09585571	2.19607854
480.09994507	2.21568632
480.10400391	2.15686274
480.10400391	2.09803915
480.10818481	2.15686274
480.11221313	2.27450991
480.11630249	2.35294127
480.12039185	2.39215684
480.12454224	2.37254906
480.12850952	2.39215684
480.13256836	2.39215684
480.13256836	2.39215684
480.13684082	2.41176462
480.14089966	2.43137264
480.14498901	2.47058821
480.14913940	2.49019599
480.15328979	2.50980401
480.15731812	2.52941179
480.16143799	2.56862736
480.16143799	2.56862736
480.16543579	2.54901958
480.16958618	2.52941179
480.17370605	2.50980401
480.17776489	2.62745094
480.18179321	2.64705873
480.18594360	2.72549009
480.19006348	2.74509811
480.19006348	2.66666675
480.19415283	2.64705873
480.19824219	2.64705873
480.20236206	2.68627453
480.20236206	2.66666675
480.20651245	2.64705873
480.21057129	2.60784316
480.21469116	2.60784316
480.21871948	2.60784316
480.21871948	2.60784316
480.22283936	2.68627453
480.22692871	2.68627453
480.23104858	2.68627453
480.23104858	2.66666675
480.23519897	2.68627453
480.23919678	2.68627453
480.24331665	2.66666675
480.24746704	2.62745094
480.24746704	2.60784316
480.25140381	2.56862736
480.25552368	2.56862736
480.25967407	2.50980401
480.25967407	2.49019599
480.26379395	2.47058821
480.26788330	2.45098042
480.27182007	2.39215684
480.27618408	2.31372547
480.27618408	2.31372547
480.28015137	2.37254906
480.28427124	2.33333325
480.28845215	2.31372547
480.28845215	2.25490189
480.29241943	2.25490189
480.29656982	2.25490189
480.30068970	2.21568632
480.30480957	2.25490189
480.30480957	2.23529410
480.30877686	2.25490189
480.31292725	2.23529410
480.31707764	2.25490189
480.31707764	2.25490189
480.32125854	2.27450991
480.32522583	2.25490189
480.32934570	2.23529410
480.33349609	2.23529410
480.33349609	2.23529410
480.33755493	2.27450991
480.34155273	2.27450991
480.34567261	2.29411769
480.34567261	2.33333325
480.34979248	2.37254906
480.35388184	2.35294127
480.35806274	2.37254906
480.36218262	2.39215684
480.36218262	2.47058821
480.36614990	2.50980401
480.37030029	2.50980401
480.37435913	2.52941179
480.37435913	2.56862736
480.37841797	2.60784316
480.38253784	2.64705873
480.38668823	2.68627453
480.39077759	2.66666675
480.39489746	2.66666675
480.39892578	2.76470590
480.40310669	2.76470590
480.40310669	2.74509811
480.40716553	2.76470590
480.41125488	2.76470590
480.41531372	2.74509811
480.41943359	2.74509811
480.42355347	2.72549009
480.42761230	2.66666675
480.43185425	2.60784316
480.43185425	2.60784316
480.43582153	2.62745094
480.43994141	2.62745094
480.44406128	2.60784316
480.44821167	2.52941179
480.45217896	2.50980401
480.45626831	2.49019599
480.46041870	2.47058821
480.46041870	2.47058821
480.46450806	2.45098042
480.46850586	2.41176462
480.47262573	2.39215684
480.47262573	2.35294127
480.47677612	2.35294127
480.48095703	2.33333325
480.48492432	2.33333325
480.48919678	2.33333325
480.48919678	2.29411769
480.49316406	2.25490189
480.49731445	2.25490189
480.50146484	2.29411769
480.50146484	2.29411769
480.50540161	2.29411769
480.50952148	2.31372547
480.51367188	2.33333325
480.51779175	2.39215684
480.51779175	2.47058821
480.52185059	2.45098042
480.52590942	2.43137264
480.53015137	2.41176462
480.53015137	2.39215684
480.53414917	2.39215684
480.53829956	2.41176462
480.54226685	2.43137264
480.54644775	2.43137264
480.54644775	2.41176462
480.55056763	2.41176462
480.55468750	2.41176462
480.55880737	2.39215684
480.55880737	2.41176462
480.56280518	2.45098042
480.56692505	2.49019599
480.57107544	2.49019599
480.57519531	2.49019599
480.57519531	2.47058821
480.57919312	2.50980401
480.58328247	2.54901958
480.58737183	2.54901958
480.58737183	2.54901958
480.59155273	2.52941179
480.59552002	2.54901958
480.59970093	2.56862736
480.60382080	2.60784316
480.60382080	2.58823538
480.60794067	2.58823538
480.61193848	2.58823538
480.61618042	2.64705873
480.61618042	2.68627453
480.62017822	2.66666675
480.62429810	2.64705873
480.62826538	2.64705873
480.63244629	2.64705873
480.63244629	2.64705873
480.63653564	2.64705873
480.64065552	2.70588231
480.64480591	2.70588231
480.64480591	2.64705873
480.64877319	2.62745094
480.65283203	2.60784316
480.65701294	2.58823538
480.66125488	2.54901958
480.66516113	2.50980401
480.66931152	2.49019599
480.67343140	2.49019599
480.67343140	2.47058821
480.67749023	2.49019599
480.68170166	2.49019599
480.68566895	2.45098042
480.68972778	2.39215684
480.69384766	2.31372547
480.69802856	2.35294127
480.70208740	2.37254906
480.70208740	2.35294127
480.70620728	2.31372547
480.71023560	2.31372547
480.71441650	2.31372547
480.71835327	2.35294127
480.72256470	2.39215684
480.72665405	2.39215684
480.73083496	2.37254906
480.73083496	2.35294127
480.73492432	2.37254906
480.73892212	2.35294127
480.74319458	2.35294127
480.74719238	2.39215684
480.75128174	2.39215684
480.75527954	2.37254906
480.75936890	2.39215684
480.75936890	2.41176462
480.76351929	2.41176462
480.76776123	2.37254906
480.77185059	2.37254906
480.77185059	2.39215684
480.77575684	2.43137264
480.77987671	2.47058821
480.78402710	2.47058821
480.78817749	2.47058821
480.78817749	2.43137264
480.79214478	2.41176462
480.79632568	2.45098042
480.80041504	2.49019599
480.80041504	2.49019599
480.80456543	2.45098042
480.80856323	2.47058821
480.81268311	2.50980401
480.81680298	2.50980401
480.81680298	2.52941179
480.82092285	2.52941179
480.82504272	2.52941179
480.82922363	2.50980401
480.82922363	2.52941179
480.83325195	2.52941179
480.83734131	2.54901958
480.84143066	2.54901958
480.84555054	2.52941179
480.84555054	2.52941179
480.84957886	2.54901958
480.85369873	2.56862736
480.85769653	2.58823538
480.85769653	2.54901958
480.86184692	2.50980401
480.86593628	2.49019599
480.87005615	2.47058821
480.87417603	2.45098042
480.87417603	2.47058821
480.87829590	2.47058821
480.88226318	2.49019599
480.88641357	2.50980401
480.88641357	2.47058821
480.89053345	2.43137264
480.89468384	2.41176462
480.89862061	2.43137264
480.90277100	2.43137264
480.90277100	2.43137264
480.90682983	2.41176462
480.91101074	2.35294127
480.91522217	2.31372547
480.91522217	2.31372547
480.91915894	2.37254906
480.92330933	2.39215684
480.92745972	2.39215684
480.93157959	2.35294127
480.93551636	2.31372547
480.93966675	2.33333325
480.94378662	2.35294127
480.94378662	2.33333325
480.94799805	2.31372547
480.95199585	2.31372547
480.95620728	2.35294127
480.96023560	2.39215684
480.96435547	2.37254906
480.96844482	2.41176462
480.97241211	2.39215684
480.97241211	2.37254906
480.97665405	2.39215684
480.98071289	2.43137264
480.98480225	2.45098042
480.98876953	2.41176462
480.99298096	2.41176462
480.99713135	2.41176462
481.00122070	2.47058821
481.00122070	2.49019599
481.00521851	2.54901958
481.00930786	2.54901958
481.01345825	2.52941179
481.01754761	2.50980401
481.02166748	2.54901958
481.02575684	2.58823538
481.02981567	2.54901958
481.02981567	2.49019599
481.03387451	2.45098042
481.03799438	2.47058821
481.04217529	2.49019599
481.04217529	2.50980401
481.04614258	2.49019599
481.05029297	2.45098042
481.05444336	2.41176462
481.05856323	2.41176462
481.05856323	2.41176462
481.06256104	2.47058821
481.06668091	2.50980401
481.07080078	2.49019599
481.07080078	2.49019599
481.07495117	2.50980401
481.07891846	2.50980401
481.08316040	2.49019599
481.08718872	2.45098042
481.08718872	2.43137264
481.09124756	2.45098042
481.09524536	2.43137264
481.09939575	2.47058821
481.09939575	2.50980401
481.10351563	2.49019599
481.10766602	2.45098042
481.11181641	2.41176462
481.11596680	2.37254906
481.11596680	2.35294127
481.11990356	2.35294127
481.12402344	2.37254906
481.12808228	2.39215684
481.12808228	2.39215684
481.13232422	2.37254906
481.13626099	2.39215684
481.14041138	2.39215684
481.14456177	2.37254906
481.14456177	2.37254906
481.14855957	2.33333325
481.15261841	2.33333325
481.15673828	2.35294127
481.15673828	2.37254906
481.16094971	2.45098042
481.16528320	2.49019599
481.16915894	2.45098042
481.17315674	2.39215684
481.17315674	2.33333325
481.17730713	2.35294127
481.18145752	2.41176462
481.18554688	2.50980401
481.18554688	2.56862736
481.18957520	2.58823538
481.19369507	2.56862736
481.19778442	2.50980401
481.20184326	2.39215684
481.20587158	2.33333325
481.20996094	2.29411769
481.21417236	2.31372547
481.21417236	2.33333325
481.21829224	2.37254906
481.22229004	2.39215684
481.22647095	2.39215684
481.23049927	2.37254906
481.23458862	2.39215684
481.23861694	2.37254906
481.24273682	2.43137264
481.24273682	2.47058821
481.24694824	2.45098042
481.25100708	2.49019599
481.25515747	2.45098042
481.25918579	2.41176462
481.26327515	2.39215684
481.26736450	2.43137264
481.27148438	2.45098042
481.27148438	2.47058821
481.27548218	2.45098042
481.27972412	2.45098042
481.28375244	2.45098042
481.28784180	2.49019599
481.29187012	2.52941179
481.29617310	2.56862736
481.30017090	2.58823538
481.30017090	2.56862736
481.30426025	2.54901958
481.30844116	2.49019599
481.31243896	2.43137264
481.31243896	2.39215684
481.31655884	2.37254906
481.32067871	2.37254906
481.32479858	2.41176462
481.32882690	2.43137264
481.32882690	2.43137264
481.33288574	2.41176462
481.33694458	2.43137264
481.34118652	2.45098042
481.34118652	2.41176462
481.34515381	2.39215684
481.34927368	2.39215684
481.35345459	2.37254906
481.35754395	2.37254906
481.35754395	2.41176462
481.36169434	2.45098042
481.36563110	2.47058821
481.36975098	2.45098042
481.36975098	2.41176462
481.37390137	2.35294127
481.37802124	2.31372547
481.38217163	2.39215684
481.38610840	2.43137264
481.38610840	2.41176462
481.39031982	2.41176462
481.39434814	2.33333325
481.39849854	2.33333325
481.39849854	2.37254906
481.40249634	2.39215684
481.40664673	2.37254906
481.41079712	2.35294127
481.41494751	2.31372547
481.41494751	2.29411769
481.41891479	2.27450991
481.42315674	2.23529410
481.42715454	2.27450991
481.42715454	2.25490189
481.43130493	2.21568632
481.43542480	2.21568632
481.43942261	2.23529410
481.44354248	2.31372547
481.44354248	2.29411769
481.44763184	2.25490189
481.45175171	2.19607854
481.45571899	2.23529410
481.45571899	2.21568632
481.45989990	2.23529410
481.46401978	2.25490189
481.46810913	2.25490189
481.47229004	2.15686274
481.47625732	2.17647052
481.48043823	2.23529410
481.48455811	2.17647052
481.48455811	2.13725495
481.48867798	2.19607854
481.49264526	2.21568632
481.49679565	2.21568632
481.50091553	2.15686274
481.50512695	2.13725495
481.50918579	2.09803915
481.51318359	2.07843137
481.51318359	2.07843137
481.51730347	2.13725495
481.52133179	2.15686274
481.52551270	2.15686274
481.52954102	2.05882359
481.53359985	2.01960778
481.53778076	2.03921580
481.54187012	2.07843137
481.54187012	2.05882359
481.54592896	2.03921580
481.55004883	2.03921580
481.55416870	2.07843137
481.55828857	2.17647052
481.56228638	2.15686274
481.56640625	2.15686274
481.57052612	2.17647052
481.57052612	2.17647052
481.57461548	2.17647052
481.57861328	2.15686274
481.58273315	2.17647052
481.58273315	2.23529410
481.58688354	2.23529410
481.59097290	2.19607854
481.59518433	2.21568632
481.59918213	2.23529410
481.59918213	2.25490189
481.60330200	2.27450991
481.60742188	2.29411769
481.61148071	2.27450991
481.61148071	2.23529410
481.61550903	2.25490189
481.61968994	2.29411769
481.62380981	2.33333325
481.62789917	2.27450991
481.62789917	2.17647052
481.63201904	2.21568632
481.63616943	2.27450991
481.64013672	2.31372547
481.64013672	2.35294127
481.64431763	2.37254906
481.64837646	2.31372547
481.65240479	2.25490189
481.65646362	2.21568632
481.65646362	2.25490189
481.66064453	2.31372547
481.66482544	2.29411769
481.66891479	2.23529410
481.66891479	2.19607854
481.67288208	2.17647052
481.67706299	2.27450991
481.68118286	2.29411769
481.68530273	2.27450991
481.68530273	2.27450991
481.68927002	2.25490189
481.69342041	2.23529410
481.69754028	2.27450991
481.69754028	2.29411769
481.70162964	2.31372547
481.70562744	2.29411769
481.70974731	2.21568632
481.71383667	2.17647052
481.71383667	2.15686274
481.71801758	2.19607854
481.72207642	2.25490189
481.72622681	2.21568632
481.72622681	2.13725495
481.73028564	2.07843137
481.73440552	2.09803915
481.73852539	2.13725495
481.74267578	2.19607854
481.74267578	2.17647052
481.74667358	2.21568632
481.75079346	2.25490189
481.75488281	2.25490189
481.75488281	2.21568632
481.75888062	2.23529410
481.76312256	2.23529410
481.76712036	2.25490189
481.77124023	2.25490189
481.77529907	2.35294127
481.77938843	2.37254906
481.78350830	2.35294127
481.78350830	2.31372547
481.78765869	2.29411769
481.79174805	2.29411769
481.79592896	2.35294127
481.80001831	2.33333325
481.80401611	2.37254906
481.80807495	2.41176462
481.81228638	2.41176462
481.81228638	2.35294127
481.81628418	2.33333325
481.82040405	2.33333325
481.82449341	2.33333325
481.82861328	2.50980401
481.83261108	2.33333325
481.83676147	2.35294127
481.84085083	2.45098042
481.84085083	2.50980401
481.84503174	2.52941179
481.84918213	2.49019599
481.85314941	2.49019599
481.85314941	2.50980401
481.85729980	2.50980401
481.86135864	2.50980401
481.86557007	2.58823538
481.86956787	2.62745094
481.86956787	2.54901958
481.87368774	2.49019599
481.87771606	2.49019599
481.88189697	2.58823538
481.88189697	2.56862736
481.88589478	2.54901958
481.89019775	2.39215684
481.89422607	2.41176462
481.89837646	2.47058821
481.89837646	2.50980401
481.90231323	2.43137264
481.90658569	2.35294127
481.91049194	2.41176462
481.91049194	2.47058821
481.91461182	2.37254906
481.91873169	2.29411769
481.92272949	2.31372547
481.92687988	2.23529410
481.92687988	2.19607854
481.93109131	2.33333325
481.93511963	2.29411769
481.93930054	2.33333325
481.93930054	2.49019599
481.94329834	2.41176462
481.94741821	2.35294127
481.95147705	2.23529410
481.95562744	2.15686274
481.95562744	2.25490189
481.95956421	2.35294127
481.96374512	2.54901958
481.96789551	2.45098042
481.96789551	2.33333325
481.97198486	2.33333325
481.97616577	2.45098042
481.98019409	2.45098042
481.98428345	2.41176462
481.98428345	2.41176462
481.98840332	2.35294127
481.99237061	2.29411769
481.99655151	2.33333325
481.99655151	2.37254906
482.00073242	2.33333325
482.00485229	2.41176462
482.00900269	2.37254906
482.01293945	2.13725495
482.01293945	1.82352936
482.01724243	2.11764717
482.02127075	2.45098042
482.02536011	2.60784316
482.02536011	2.50980401
482.02929688	2.37254906
482.03335571	2.41176462
482.03756714	2.41176462
482.04171753	2.66666675
482.04568481	2.54901958
482.04974365	2.21568632
482.05395508	1.92156863
482.05395508	2.11764717
482.05810547	2.33333325
482.06222534	2.39215684
482.06622314	2.60784316
482.07031250	2.41176462
482.07446289	2.49019599
482.07858276	2.39215684
482.08273315	2.54901958
482.08273315	2.45098042
482.08670044	2.23529410
482.09078979	1.72549021
482.09490967	1.68627453
482.09909058	2.19607854
482.10321045	2.27450991
482.10717773	2.54901958
482.11129761	2.84313726
482.11129761	2.94117641
482.11547852	2.92156863
482.11938477	2.70588231
482.12359619	2.70588231
482.12765503	2.49019599
482.13180542	2.66666675
482.13577271	2.39215684
482.13986206	2.29411769
482.13986206	1.90196073
482.14401245	1.92156863
482.14810181	2.43137264
482.15225220	2.54901958
482.15225220	2.60784316
482.15625000	2.78431368
482.16033936	2.64705873
482.16452026	2.62745094
482.16864014	2.68627453
482.16864014	2.50980401
482.17266846	1.96078432
482.17678833	1.92156863
482.18093872	2.76470590
482.18093872	2.50980401
482.18505859	2.05882359
482.18917847	2.11764717
482.19317627	2.78431368
482.19729614	2.66666675
482.19729614	2.62745094
482.20135498	2.50980401
482.20553589	2.49019599
482.20947266	2.72549009
482.20947266	2.29411769
482.21365356	2.11764717
482.21774292	2.07843137
482.22186279	2.07843137
482.22598267	2.86274505
482.22598267	2.90196085
482.23019409	2.86274505
482.23416138	2.86274505
482.23828125	2.84313726
482.23828125	2.74509811
482.24230957	2.52941179
482.24649048	2.21568632
482.25048828	2.37254906
482.25460815	2.62745094
482.25460815	2.68627453
482.25875854	2.66666675
482.26275635	2.50980401
482.26684570	2.49019599
482.26684570	2.17647052
482.27096558	1.96078432
482.27514648	2.62745094
482.27914429	2.60784316
482.28332520	2.56862736
482.28332520	2.43137264
482.28741455	2.54901958
482.29150391	2.47058821
482.29574585	2.66666675
482.29574585	2.66666675
482.29965210	2.58823538
482.30374146	2.39215684
482.30792236	2.39215684
482.31198120	2.37254906
482.31613159	1.96078432
482.32012939	2.29411769
482.32424927	2.27450991
482.32424927	1.86274505
482.32839966	2.23529410
482.33236694	2.64705873
482.33648682	3.17647052
482.34063721	2.72549009
482.34481812	2.49019599
482.34887695	2.52941179
482.35290527	2.31372547
482.35290527	2.52941179
482.35711670	2.23529410
482.36114502	1.96078432
482.36529541	1.80392158
482.36923218	2.49019599
482.37341309	2.80392146
482.37750244	2.84313726
482.38162231	2.98039222
482.38162231	2.88235283
482.38562012	3.07843137
482.38973999	2.96078420
482.39395142	2.92156863
482.39797974	2.70588231
482.40209961	2.82352948
482.40609741	2.47058821
482.41027832	2.31372547
482.41027832	1.66666663
482.41439819	1.50980389
482.41854858	2.13725495
482.42266846	2.19607854
482.42266846	2.62745094
482.42663574	2.78431368
482.43075562	2.92156863
482.43490601	2.72549009
482.43905640	2.72549009
482.43905640	2.62745094
482.44317627	2.37254906
482.44717407	2.68627453
482.45132446	2.54901958
482.45132446	2.49019599
482.45544434	2.78431368
482.45944214	3.03921580
482.46356201	2.94117641
482.46765137	2.88235283
482.46765137	2.80392146
482.47180176	2.17647052
482.47583008	1.68627453
482.47985840	2.45098042
482.47985840	2.49019599
482.48400879	2.35294127
482.48815918	2.92156863
482.49215698	2.78431368
482.49630737	2.86274505
482.49630737	2.70588231
482.50039673	2.45098042
482.50454712	2.31372547
482.50863647	2.35294127
482.50863647	2.19607854
482.51266479	2.25490189
482.51675415	2.78431368
482.52081299	2.72549009
482.52502441	3.00000000
482.52502441	2.68627453
482.52911377	2.54901958
482.53311157	2.62745094
482.53732300	2.66666675
482.53732300	2.11764717
482.54141235	2.00000000
482.54550171	2.70588231
482.54946899	2.86274505
482.55361938	2.90196085
482.55361938	2.96078420
482.55776978	2.88235283
482.56188965	2.47058821
482.56604004	2.35294127
482.56604004	2.98039222
482.57015991	2.66666675
482.57415771	2.37254906
482.57821655	2.37254906
482.58236694	2.54901958
482.58236694	2.62745094
482.58633423	2.74509811
482.59048462	2.64705873
482.59466553	2.47058821
482.59466553	2.15686274
482.59881592	2.27450991
482.60278320	2.76470590
482.60690308	2.68627453
482.61096191	2.80392146
482.61517334	2.54901958
482.61914063	2.13725495
482.62322998	2.27450991
482.62322998	2.58823538
482.62753296	2.56862736
482.63156128	2.60784316
482.63568115	2.52941179
482.63970947	2.86274505
482.64379883	2.80392146
482.64794922	2.50980401
482.65203857	2.49019599
482.65203857	2.39215684
482.65609741	2.25490189
482.66009521	2.62745094
482.66433716	2.86274505
482.66842651	2.78431368
482.67242432	2.66666675
482.67654419	2.62745094
482.68072510	2.72549009
482.68072510	2.68627453
482.68484497	2.64705873
482.68896484	2.49019599
482.69296265	2.33333325
482.69296265	2.50980401
482.69726563	2.50980401
482.70120239	2.43137264
482.70529175	2.43137264
482.70944214	2.19607854
482.70944214	2.21568632
482.71343994	2.27450991
482.71752930	2.72549009
482.72164917	2.90196085
482.72164917	2.64705873
482.72586060	2.60784316
482.72979736	2.76470590
482.73388672	2.98039222
482.73806763	2.80392146
482.73806763	2.78431368
482.74221802	2.80392146
482.74621582	2.72549009
482.75030518	2.33333325
482.75030518	2.41176462
482.75442505	2.49019599
482.75857544	2.39215684
482.76260376	2.45098042
482.76669312	2.41176462
482.76669312	2.01960778
482.77090454	2.03921580
482.77496338	2.68627453
482.77905273	2.60784316
482.77905273	2.54901958
482.78314209	2.98039222
482.78720093	2.94117641
482.79125977	2.96078420
482.79544067	2.86274505
482.79544067	2.74509811
482.79940796	2.94117641
482.80355835	2.80392146
482.80764771	2.64705873
482.80764771	2.54901958
482.81176758	2.33333325
482.81591797	2.23529410
482.81988525	1.72549021
482.82415771	1.21568632
482.82415771	2.50980401
482.82830811	2.68627453
482.83227539	2.52941179
482.83621216	2.62745094
482.83621216	3.03921580
482.84036255	2.96078420
482.84451294	2.88235283
482.84863281	2.82352948
482.85278320	2.70588231
482.85278320	2.41176462
482.85675049	2.41176462
482.86087036	2.72549009
482.86505127	2.47058821
482.86505127	1.45098042
482.86917114	1.78431368
482.87313843	2.33333325
482.87738037	2.70588231
482.88137817	2.66666675
482.88549805	2.78431368
482.88946533	2.84313726
482.89364624	2.60784316
482.89364624	2.39215684
482.89773560	2.62745094
482.90179443	2.56862736
482.90603638	2.66666675
482.91012573	2.72549009
482.91415405	2.68627453
482.91827393	2.52941179
482.92239380	2.29411769
482.92239380	2.47058821
482.92636108	2.47058821
482.93054199	2.31372547
482.93466187	2.07843137
482.93878174	2.27450991
482.94277954	2.56862736
482.94692993	2.86274505
482.95117188	2.68627453
482.95117188	2.25490189
482.95510864	2.56862736
482.95925903	2.62745094
482.96322632	2.68627453
482.96737671	2.82352948
482.97149658	2.72549009
482.97561646	2.58823538
482.97967529	2.35294127
482.97967529	2.15686274
482.98376465	2.60784316
482.98791504	2.47058821
482.99203491	2.52941179
482.99203491	2.68627453
482.99615479	2.47058821
483.00015259	2.29411769
483.00427246	2.07843137
483.00830078	2.00000000
483.00830078	2.74509811
483.01248169	2.86274505
483.01651001	2.64705873
483.02081299	2.52941179
483.02081299	2.56862736
483.02474976	2.64705873
483.02883911	2.66666675
483.03283691	2.52941179
483.03723145	2.50980401
483.03723145	2.50980401
483.04110718	2.43137264
483.04525757	2.43137264
483.04937744	2.60784316
483.04937744	2.45098042
483.05334473	2.23529410
483.05749512	2.49019599
483.06161499	2.25490189
483.06579590	1.92156863
483.06579590	2.54901958
483.06976318	2.56862736
483.07388306	2.33333325
483.07803345	2.45098042
483.07803345	2.49019599
483.08218384	2.64705873
483.08618164	2.76470590
483.09033203	2.76470590
483.09442139	2.45098042
483.09442139	2.41176462
483.09851074	2.52941179
483.10269165	2.60784316
483.10665894	2.76470590
483.10665894	2.43137264
483.11071777	2.13725495
483.11489868	2.56862736
483.11904907	2.80392146
483.12316895	2.62745094
483.12316895	2.56862736
483.12713623	2.58823538
483.13128662	2.43137264
483.13537598	1.70588231
483.13537598	2.23529410
483.13937378	2.80392146
483.14352417	2.72549009
483.14767456	2.66666675
483.15176392	2.41176462
483.15585327	2.56862736
483.15988159	2.68627453
483.16412354	2.90196085
483.16412354	2.86274505
483.16812134	2.62745094
483.17224121	2.39215684
483.17620850	2.43137264
483.18038940	2.56862736
483.18450928	2.37254906
483.18859863	1.98039210
483.19277954	2.52941179
483.19277954	2.15686274
483.19677734	2.37254906
483.20095825	2.66666675
483.20507813	2.88235283
483.20916748	2.84313726
483.21313477	2.70588231
483.21725464	2.35294127
483.22149658	2.07843137
483.22149658	2.52941179
483.22552490	2.62745094
483.22946167	2.50980401
483.23364258	2.45098042
483.23776245	2.27450991
483.24191284	2.49019599
483.24594116	2.37254906
483.25015259	2.15686274
483.25015259	2.27450991
483.25415039	2.47058821
483.25820923	2.39215684
483.26242065	2.68627453
483.26242065	2.52941179
483.26635742	2.15686274
483.27047729	2.47058821
483.27468872	2.39215684
483.27908325	2.45098042
483.27908325	2.54901958
483.28277588	2.62745094
483.28686523	2.45098042
483.29119873	2.54901958
483.29119873	2.72549009
483.29513550	2.64705873
483.29925537	2.60784316
483.30322266	2.74509811
483.30737305	2.70588231
483.30737305	2.74509811
483.31149292	2.66666675
483.31567383	2.58823538
483.31970215	2.21568632
483.31970215	2.09803915
483.32373047	2.39215684
483.32781982	2.31372547
483.33200073	2.52941179
483.33605957	2.52941179
483.33605957	2.41176462
483.34011841	2.29411769
483.34420776	1.90196073
483.34841919	2.43137264
483.34841919	2.58823538
483.35253906	2.50980401
483.35650635	2.39215684
483.36065674	2.72549009
483.36480713	2.60784316
483.36480713	2.50980401
483.36886597	2.19607854
483.37286377	1.86274505
483.37710571	2.60784316
483.37710571	2.43137264
483.38116455	2.41176462
483.38525391	2.21568632
483.38934326	2.23529410
483.39328003	2.21568632
483.39328003	2.62745094
483.39749146	2.64705873
483.40176392	3.01960778
483.40576172	3.01960778
483.40576172	3.00000000
483.40972900	2.76470590
483.41387939	2.37254906
483.41799927	2.07843137
483.42214966	2.52941179
483.42214966	2.66666675
483.42614746	2.68627453
483.43026733	2.62745094
483.43432617	2.66666675
483.43432617	2.56862736
483.43850708	2.31372547
483.44265747	2.25490189
483.44662476	2.31372547
483.45071411	2.49019599
483.45486450	2.29411769
483.45892334	2.07843137
483.46310425	2.11764717
483.46310425	2.23529410
483.46710205	2.29411769
483.47122192	2.68627453
483.47540283	2.64705873
483.47952271	2.58823538
483.48348999	2.70588231
483.48764038	2.66666675
483.49176025	2.68627453
483.49176025	2.68627453
483.49588013	2.56862736
483.49987793	2.33333325
483.50411987	2.33333325
483.50814819	2.33333325
483.51223755	2.50980401
483.51641846	2.37254906
483.52038574	2.21568632
483.52038574	2.35294127
483.52450562	2.56862736
483.52862549	2.56862736
483.53274536	2.70588231
483.53274536	2.54901958
483.53677368	2.43137264
483.54089355	2.56862736
483.54498291	2.68627453
483.54916382	2.64705873
483.54916382	2.50980401
483.55313110	2.11764717
483.55728149	2.31372547
483.56143188	2.60784316
483.56143188	2.50980401
483.56558228	2.54901958
483.56970215	2.66666675
483.57366943	2.68627453
483.57781982	2.54901958
483.57781982	2.43137264
483.58197021	2.37254906
483.58605957	2.05882359
483.59008789	2.49019599
483.59008789	2.60784316
483.59414673	2.64705873
483.59823608	2.39215684
483.60238647	2.35294127
483.60653687	2.49019599
483.60653687	2.19607854
483.61050415	2.37254906
483.61468506	2.49019599
483.61877441	2.49019599
483.61877441	2.47058821
483.62277222	2.72549009
483.62692261	2.70588231
483.63101196	2.54901958
483.63513184	2.50980401
483.63513184	2.35294127
483.63922119	2.00000000
483.64324951	2.37254906
483.64733887	1.78431368
483.64733887	1.72549021
483.65145874	2.84313726
483.65560913	2.90196085
483.65960693	2.96078420
483.66372681	2.86274505
483.66372681	2.72549009
483.66784668	2.35294127
483.67199707	2.25490189
483.67614746	2.56862736
483.67614746	2.58823538
483.68017578	2.45098042
483.68426514	2.50980401
483.68838501	2.74509811
483.69250488	2.64705873
483.69250488	2.52941179
483.69650269	2.31372547
483.70059204	1.96078432
483.70474243	1.82352936
483.70474243	2.39215684
483.70880127	2.49019599
483.71286011	2.62745094
483.71716309	2.60784316
483.72109985	2.72549009
483.72528076	2.78431368
483.72943115	2.70588231
483.73336792	2.60784316
483.73336792	2.54901958
483.73751831	2.35294127
483.74163818	2.21568632
483.74575806	2.58823538
483.74975586	2.52941179
483.75390625	2.39215684
483.75799561	2.45098042
483.76211548	2.29411769
483.76211548	2.15686274
483.76626587	2.25490189
483.77023315	2.17647052
483.77432251	2.25490189
483.77853394	2.45098042
483.78262329	2.25490189
483.78659058	2.37254906
483.79077148	2.72549009
483.79077148	2.54901958
483.79489136	2.62745094
483.79901123	2.66666675
483.80313110	2.58823538
483.80313110	2.47058821
483.80709839	2.47058821
483.81124878	2.47058821
483.81536865	2.27450991
483.81948853	2.45098042
483.81948853	2.68627453
483.82348633	2.58823538
483.82763672	2.50980401
483.83172607	2.66666675
483.83172607	2.58823538
483.83587646	2.52941179
483.83981323	2.50980401
483.84411621	2.62745094
483.84817505	2.64705873
483.84817505	2.58823538
483.85226440	2.43137264
483.85626221	2.41176462
483.86038208	2.41176462
483.86038208	2.47058821
483.86453247	2.41176462
483.86865234	2.43137264
483.87277222	2.47058821
483.87670898	2.54901958
483.87670898	2.45098042
483.88092041	2.52941179
483.88497925	2.62745094
483.88909912	2.68627453
483.88909912	2.66666675
483.89315796	2.60784316
483.89721680	2.54901958
483.90133667	2.54901958
483.90542603	2.49019599
483.90542603	2.45098042
483.90966797	2.49019599
483.91363525	2.49019599
483.91775513	2.54901958
483.91775513	2.54901958
483.92190552	2.50980401
483.92602539	2.47058821
483.93014526	2.39215684
483.93411255	2.49019599
483.93411255	2.54901958
483.93826294	2.47058821
483.94241333	2.37254906
483.94653320	2.47058821
483.94653320	2.50980401
483.95053101	2.60784316
483.95462036	2.60784316
483.95867920	2.60784316
483.96286011	2.60784316
483.96286011	2.60784316
483.96682739	2.58823538
483.97097778	2.56862736
483.97512817	2.58823538
483.97512817	2.58823538
483.97930908	2.58823538
483.98327637	2.60784316
483.98745728	2.60784316
483.99157715	2.54901958
483.99569702	2.47058821
483.99978638	2.39215684
484.00381470	2.39215684
484.00381470	2.33333325
484.00796509	2.25490189
484.01208496	2.39215684
484.01623535	2.39215684
484.02020264	2.45098042
484.02429199	2.50980401
484.02844238	2.47058821
484.03253174	2.60784316
484.03253174	2.66666675
484.03665161	2.64705873
484.04061890	2.66666675
484.04470825	2.68627453
484.04885864	2.62745094
484.05294800	2.64705873
484.05706787	2.62745094
484.06112671	2.62745094
484.06112671	2.64705873
484.06530762	2.70588231
484.06939697	2.66666675
484.07351685	2.58823538
484.07351685	2.52941179
484.07745361	2.62745094
484.08160400	2.72549009
484.08566284	2.78431368
484.08984375	2.78431368
484.08984375	2.70588231
484.09381104	2.64705873
484.09799194	2.72549009
484.10214233	2.64705873
484.10214233	2.62745094
484.10626221	2.56862736
484.11022949	2.49019599
484.11437988	2.49019599
484.11846924	2.43137264
484.11846924	2.54901958
484.12265015	2.66666675
484.12658691	2.64705873
484.13076782	2.62745094
484.13076782	2.62745094
484.13488770	2.64705873
484.13897705	2.70588231
484.14318848	2.72549009
484.14712524	2.72549009
484.14712524	2.70588231
484.15118408	2.66666675
484.15536499	2.64705873
484.15945435	2.64705873
484.15945435	2.66666675
484.16348267	2.68627453
484.16763306	2.70588231
484.17178345	2.66666675
484.17590332	2.60784316
484.17590332	2.54901958
484.17990112	2.49019599
484.18414307	2.41176462
484.18817139	2.45098042
484.18817139	2.31372547
484.19232178	2.25490189
484.19631958	2.54901958
484.20043945	2.76470590
484.20455933	2.82352948
484.20455933	2.78431368
484.20870972	2.74509811
484.21282959	2.70588231
484.21691895	2.64705873
484.21691895	2.62745094
484.22088623	2.60784316
484.22503662	2.58823538
484.22918701	2.58823538
484.23327637	2.54901958
484.23327637	2.52941179
484.23727417	2.52941179
484.24142456	2.58823538
484.24557495	2.58823538
484.24557495	2.54901958
484.24969482	2.45098042
484.25366211	2.39215684
484.25784302	2.45098042
484.26193237	2.62745094
484.26611328	2.60784316
484.27020264	2.45098042
484.27423096	2.33333325
484.27423096	2.31372547
484.27832031	2.37254906
484.28240967	2.41176462
484.28649902	2.50980401
484.29055786	2.43137264
484.29464722	2.39215684
484.29870605	2.43137264
484.30282593	2.43137264
484.30282593	2.45098042
484.30691528	2.45098042
484.31115723	2.41176462
484.31518555	2.41176462
484.31927490	2.45098042
484.32324219	2.41176462
484.32742310	2.49019599
484.33148193	2.64705873
484.33148193	2.60784316
484.33563232	2.54901958
484.33969116	2.54901958
484.34375000	2.54901958
484.34375000	2.54901958
484.34783936	2.50980401
484.35202026	2.39215684
484.35614014	2.31372547
484.36026001	2.29411769
484.36026001	2.33333325
484.36428833	2.39215684
484.36837769	2.49019599
484.37249756	2.41176462
484.37249756	2.29411769
484.37664795	2.31372547
484.38064575	2.37254906
484.38476563	2.43137264
484.38879395	2.41176462
484.38879395	2.39215684
484.39300537	2.49019599
484.39712524	2.50980401
484.40106201	2.50980401
484.40106201	2.50980401
484.40521240	2.56862736
484.40936279	2.49019599
484.41339111	2.39215684
484.41748047	2.37254906
484.41748047	2.43137264
484.42163086	2.41176462
484.42578125	2.43137264
484.42987061	2.41176462
484.42987061	2.35294127
484.43383789	2.31372547
484.43801880	2.33333325
484.44213867	2.41176462
484.44625854	2.45098042
484.44625854	2.45098042
484.45016479	2.43137264
484.45443726	2.41176462
484.45855713	2.39215684
484.45855713	2.43137264
484.46264648	2.47058821
484.46655273	2.54901958
484.47073364	2.49019599
484.47485352	2.43137264
484.47485352	2.35294127
484.47903442	2.39215684
484.48315430	2.39215684
484.48712158	2.35294127
484.48712158	2.43137264
484.49127197	2.47058821
484.49539185	2.39215684
484.49954224	2.37254906
484.50369263	2.47058821
484.50369263	2.52941179
484.50762939	2.50980401
484.51177979	2.50980401
484.51586914	2.50980401
484.51586914	2.50980401
484.51989746	2.49019599
484.52410889	2.54901958
484.52810669	2.54901958
484.53222656	2.47058821
484.53634644	2.47058821
484.54034424	2.49019599
484.54443359	2.49019599
484.54443359	2.47058821
484.54864502	2.45098042
484.55273438	2.43137264
484.55673218	2.41176462
484.56085205	2.37254906
484.56503296	2.45098042
484.56915283	2.47058821
484.57327271	2.43137264
484.57327271	2.45098042
484.57720947	2.49019599
484.58132935	2.54901958
484.58541870	2.52941179
484.58956909	2.49019599
484.59356689	2.45098042
484.59774780	2.45098042
484.60180664	2.49019599
484.60180664	2.52941179
484.60601807	2.52941179
484.61013794	2.50980401
484.61413574	2.47058821
484.61822510	2.45098042
484.62237549	2.49019599
484.62649536	2.47058821
484.63049316	2.45098042
484.63049316	2.37254906
484.63461304	2.33333325
484.63873291	2.37254906
484.64288330	2.41176462
484.64288330	2.47058821
484.64685059	2.50980401
484.65109253	2.45098042
484.65505981	2.37254906
484.65924072	2.39215684
484.65924072	2.43137264
484.66320801	2.45098042
484.66735840	2.47058821
484.67150879	2.49019599
484.67150879	2.45098042
484.67562866	2.47058821
484.67977905	2.45098042
484.68374634	2.39215684
484.68783569	2.41176462
484.68783569	2.45098042
484.69195557	2.43137264
484.69613647	2.43137264
484.70022583	2.47058821
484.70022583	2.49019599
484.70425415	2.54901958
484.70831299	2.54901958
484.71249390	2.52941179
484.71661377	2.50980401
484.71661377	2.50980401
484.72073364	2.52941179
484.72470093	2.54901958
484.72882080	2.54901958
484.72882080	2.50980401
484.73297119	2.52941179
484.73715210	2.50980401
484.74111938	2.50980401
484.74526978	2.52941179
484.74526978	2.50980401
484.74938965	2.50980401
484.75338745	2.49019599
484.75747681	2.47058821
484.75747681	2.52941179
484.76159668	2.60784316
484.76577759	2.64705873
484.76986694	2.66666675
484.77392578	2.58823538
484.77392578	2.50980401
484.77810669	2.43137264
484.78210449	2.43137264
484.78622437	2.52941179
484.78622437	2.58823538
484.79019165	2.54901958
484.79434204	2.50980401
484.79852295	2.54901958
484.80258179	2.60784316
484.80673218	2.58823538
484.81079102	2.52941179
484.81488037	2.52941179
484.81488037	2.54901958
484.81900024	2.56862736
484.82315063	2.58823538
484.82711792	2.56862736
484.83126831	2.50980401
484.83532715	2.50980401
484.83947754	2.54901958
484.84356689	2.56862736
484.84356689	2.58823538
484.84765625	2.56862736
484.85168457	2.54901958
484.85586548	2.52941179
484.86001587	2.60784316
484.86416626	2.66666675
484.86813354	2.68627453
484.87219238	2.66666675
484.87219238	2.64705873
484.87637329	2.64705873
484.88037109	2.62745094
484.88446045	2.64705873
484.88446045	2.66666675
484.88858032	2.64705873
484.89266968	2.64705873
484.89669800	2.70588231
484.90081787	2.74509811
484.90081787	2.80392146
484.90509033	2.82352948
484.90911865	2.76470590
484.91329956	2.68627453
484.91329956	2.64705873
484.91723633	2.64705873
484.92138672	2.66666675
484.92550659	2.68627453
484.92962646	2.66666675
484.92962646	2.62745094
484.93359375	2.60784316
484.93771362	2.62745094
484.94183350	2.64705873
484.94183350	2.66666675
484.94598389	2.64705873
484.95010376	2.60784316
484.95410156	2.58823538
484.95825195	2.56862736
484.95825195	2.60784316
484.96237183	2.62745094
484.96646118	2.62745094
484.97070313	2.64705873
484.97070313	2.62745094
484.97470093	2.56862736
484.97882080	2.54901958
484.98287964	2.58823538
484.98699951	2.70588231
484.98699951	2.70588231
484.99114990	2.70588231
484.99520874	2.66666675
484.99923706	2.66666675
484.99923706	2.70588231
485.00320435	2.74509811
485.00729370	2.72549009
485.01144409	2.66666675
485.01565552	2.64705873
485.01565552	2.60784316
485.01974487	2.66666675
485.02371216	2.74509811
485.02789307	2.76470590
485.02789307	2.80392146
485.03198242	2.84313726
485.03610229	2.84313726
485.04013062	2.88235283
485.04418945	2.92156863
485.04418945	2.86274505
485.04833984	2.84313726
485.05252075	2.84313726
485.05664063	2.86274505
485.05664063	2.86274505
485.06060791	2.90196085
485.06478882	2.96078420
485.06887817	3.00000000
485.07302856	2.94117641
485.07714844	2.94117641
485.08111572	3.00000000
485.08526611	3.05882359
485.08526611	3.03921580
485.08935547	3.00000000
485.09332275	3.00000000
485.09747314	3.00000000
485.10156250	3.03921580
485.10574341	3.03921580
485.10989380	3.01960778
485.11404419	3.03921580
485.11404419	3.03921580
485.11813354	3.05882359
485.12203979	3.11764717
485.12628174	3.15686274
485.13021851	3.00000000
485.13433838	2.94117641
485.13848877	2.92156863
485.14263916	2.90196085
485.14263916	2.88235283
485.14675903	2.86274505
485.15078735	2.84313726
485.15493774	2.80392146
485.15905762	2.76470590
485.16311646	2.82352948
485.16711426	2.82352948
485.17129517	2.78431368
485.17129517	2.78431368
485.17541504	2.78431368
485.17953491	2.78431368
485.18362427	2.76470590
485.18362427	2.74509811
485.18765259	2.70588231
485.19183350	2.66666675
485.19595337	2.62745094
485.20007324	2.60784316
485.20007324	2.62745094
485.20419312	2.62745094
485.20819092	2.60784316
485.21231079	2.54901958
485.21231079	2.50980401
485.21646118	2.49019599
485.22042847	2.50980401
485.22454834	2.54901958
485.22863770	2.62745094
485.22863770	2.66666675
485.23278809	2.70588231
485.23709106	2.76470590
485.24081421	2.82352948
485.24081421	2.86274505
485.24517822	2.94117641
485.24908447	3.05882359
485.25323486	3.19607854
485.25738525	3.35294127
485.25738525	3.58823538
485.26132202	3.92156863
485.26550293	4.39215708
485.26962280	4.98039198
485.26962280	4.98039198
485.27362061	4.98039198
485.27770996	4.98039198
485.28192139	4.98039198
485.28594971	4.96078444
485.28594971	4.96078444
485.29006958	4.98039198
485.29437256	4.96078444
485.29824829	4.90196085
485.29824829	4.82352924
485.30236816	4.68627453
485.30651855	4.52941179
485.31051636	4.39215708
485.31463623	4.25490189
485.31463623	4.11764717
485.31872559	4.03921556
485.32284546	3.94117641
485.32696533	3.82352948
485.32696533	3.64705873
485.33111572	3.43137264
485.33508301	3.33333325
485.33920288	3.27450991
485.34335327	3.19607854
485.34335327	3.13725495
485.34729004	3.01960778
485.35147095	2.88235283
485.35552979	2.76470590
485.35552979	2.66666675
485.35971069	2.58823538
485.36376953	2.54901958
485.36785889	2.47058821
485.37200928	2.33333325
485.37612915	2.27450991
485.38012695	2.23529410
485.38424683	2.15686274
485.38424683	2.09803915
485.38839722	2.00000000
485.39257813	1.88235295
485.39669800	1.76470590
485.40066528	1.58823526
485.40478516	1.54901958
485.40893555	1.50980389
485.41302490	1.47058821
485.41302490	1.41176474
485.41714478	1.41176474
485.42105103	1.37254906
485.42523193	1.37254906
485.42932129	1.47058821
485.43350220	1.47058821
485.43750000	1.43137252
485.44161987	1.39215684
485.44161987	1.33333337
485.44577026	1.27450979
485.44989014	1.17647064
485.45397949	1.09803927
485.45397949	1.07843137
485.45812988	1.00000000
485.46212769	0.90196079
485.46621704	0.76470590
485.47061157	0.47058824
485.47061157	0.01960784
485.47439575	0.01960784
485.47845459	0.01960784
485.48266602	0.01960784
485.48266602	0.01960784
485.48672485	0.01960784
485.49069214	0.01960784
485.49493408	0.07843138
485.49899292	0.29411766
485.49899292	0.60784316
485.50311279	0.84313726
485.50708008	1.03921568
485.51123047	1.19607842
485.51123047	1.31372547
485.51541138	1.47058821
485.51943970	1.62745094
485.52346802	1.70588231
485.52761841	1.76470590
485.52761841	1.82352936
485.53170776	1.88235295
485.53579712	1.96078432
485.53988647	2.05882359
485.53988647	2.13725495
485.54412842	2.13725495
485.54806519	2.11764717
485.55236816	2.07843137
485.55633545	2.11764717
485.55633545	2.09803915
485.56039429	2.01960778
485.56454468	1.98039210
485.56863403	1.90196073
485.56863403	1.88235295
485.57272339	1.88235295
485.57690430	1.82352936
485.58087158	1.82352936
485.58514404	1.82352936
485.58514404	1.84313726
485.58914185	1.88235295
485.59323120	2.00000000
485.59735107	2.11764717
485.59735107	2.25490189
485.60131836	2.29411769
485.60546875	2.33333325
485.60958862	2.39215684
485.61373901	2.45098042
485.61373901	2.41176462
485.61770630	2.41176462
485.62188721	2.35294127
485.62600708	2.25490189
485.62600708	2.19607854
485.63012695	2.11764717
485.63409424	2.05882359
485.63824463	2.00000000
485.64236450	1.94117641
485.64651489	1.90196073
485.65051270	1.88235295
485.65463257	1.92156863
485.65463257	1.92156863
485.65875244	1.94117641
485.66284180	1.94117641
485.66693115	1.90196073
485.67111206	1.88235295
485.67504883	1.88235295
485.67922974	1.92156863
485.68331909	1.90196073
485.68331909	1.84313726
485.68734741	1.80392158
485.69149780	1.82352936
485.69567871	1.82352936
485.69973755	1.88235295
485.70385742	1.84313726
485.70782471	1.86274505
485.71212769	1.86274505
485.71212769	1.86274505
485.71612549	1.88235295
485.72024536	1.88235295
485.72427368	1.88235295
485.72427368	1.86274505
485.72839355	1.88235295
485.73242188	1.94117641
485.73657227	2.05882359
485.74069214	2.13725495
485.74069214	2.15686274
485.74472046	2.11764717
485.74887085	2.05882359
485.75299072	2.09803915
485.75299072	2.13725495
485.75714111	2.19607854
485.76107788	2.23529410
485.76525879	2.29411769
485.76937866	2.27450991
485.76937866	2.23529410
485.77349854	2.25490189
485.77755737	2.27450991
485.78173828	2.27450991
485.78173828	2.25490189
485.78576660	2.23529410
485.78994751	2.23529410
485.79388428	2.25490189
485.79812622	2.29411769
485.79812622	2.37254906
485.80212402	2.39215684
485.80627441	2.35294127
485.81039429	2.31372547
485.81039429	2.33333325
485.81439209	2.37254906
485.81848145	2.41176462
485.82266235	2.43137264
485.82675171	2.45098042
485.82675171	2.43137264
485.83084106	2.45098042
485.83493042	2.50980401
485.83908081	2.54901958
485.83908081	2.54901958
485.84307861	2.52941179
485.84729004	2.62745094
485.85122681	2.74509811
485.85528564	2.82352948
485.85528564	2.86274505
485.85946655	2.88235283
485.86355591	2.88235283
485.86758423	2.88235283
485.86758423	2.88235283
485.87173462	2.98039222
485.87588501	3.05882359
485.88000488	3.15686274
485.88412476	3.21568632
485.88412476	3.21568632
485.88803101	3.17647052
485.89221191	3.15686274
485.89636230	3.09803915
485.89636230	3.09803915
485.90054321	3.07843137
485.90454102	3.01960778
485.90869141	3.00000000
485.91278076	3.09803915
485.91693115	3.21568632
485.92092896	3.27450991
485.92514038	3.17647052
485.92514038	2.98039222
485.92904663	2.76470590
485.93319702	2.64705873
485.93734741	2.66666675
485.94128418	2.90196085
485.94549561	2.94117641
485.94961548	2.94117641
485.95373535	2.98039222
485.95373535	3.00000000
485.95773315	3.09803915
485.96182251	3.13725495
485.96597290	3.09803915
485.97003174	2.92156863
485.97445679	2.84313726
485.97824097	2.74509811
485.98236084	2.66666675
485.98236084	2.56862736
485.98645020	2.50980401
485.99060059	2.49019599
485.99459839	2.52941179
485.99459839	2.60784316
485.99874878	2.62745094
486.00283813	2.60784316
486.00692749	2.49019599
486.01107788	2.41176462
486.01107788	2.41176462
486.01510620	2.39215684
486.01922607	2.41176462
486.02334595	2.43137264
486.02334595	2.45098042
486.02737427	2.47058821
486.03146362	2.45098042
486.03558350	2.47058821
486.03973389	2.56862736
486.03973389	2.68627453
486.04385376	2.78431368
486.04782104	2.84313726
486.05209351	2.86274505
486.05209351	2.84313726
486.05612183	2.80392146
486.06018066	2.78431368
486.06420898	2.78431368
486.06835938	2.82352948
486.06835938	2.84313726
486.07247925	2.88235283
486.07662964	2.96078420
486.08074951	3.05882359
486.08074951	3.15686274
486.08471680	3.23529410
486.08883667	3.27450991
486.09298706	3.29411769
486.09722900	3.29411769
486.09722900	3.21568632
486.10110474	3.09803915
486.10516357	3.03921580
486.10931396	3.00000000
486.10931396	3.01960778
486.11346436	3.07843137
486.11746216	3.05882359
486.12161255	2.94117641
486.12573242	2.88235283
486.12573242	2.90196085
486.12988281	2.90196085
486.13400269	2.88235283
486.13812256	2.84313726
486.13812256	2.72549009
486.14202881	2.54901958
486.14624023	2.39215684
486.15029907	2.29411769
486.15432739	2.33333325
486.15432739	2.41176462
486.15841675	2.50980401
486.16259766	2.56862736
486.16665649	2.52941179
486.16665649	2.43137264
486.17071533	2.41176462
486.17489624	2.45098042
486.17901611	2.54901958
486.18310547	2.50980401
486.18713379	2.43137264
486.19122314	2.45098042
486.19534302	2.43137264
486.19534302	2.39215684
486.19949341	2.35294127
486.20361328	2.33333325
486.20773315	2.37254906
486.21173096	2.41176462
486.21588135	2.41176462
486.21994019	2.37254906
486.22409058	2.27450991
486.22409058	2.25490189
486.22811890	2.23529410
486.23214722	2.21568632
486.23629761	2.23529410
486.24066162	2.21568632
486.24450684	2.21568632
486.24859619	2.25490189
486.25271606	2.33333325
486.25271606	2.43137264
486.25680542	2.50980401
486.26080322	2.56862736
486.26513672	2.56862736
486.26513672	2.58823538
486.26913452	2.56862736
486.27319336	2.60784316
486.27740479	2.68627453
486.28134155	2.76470590
486.28134155	2.80392146
486.28540039	2.82352948
486.28982544	2.84313726
486.29379272	2.90196085
486.29379272	3.00000000
486.29782104	3.13725495
486.30191040	3.21568632
486.30599976	3.25490189
486.31011963	3.29411769
486.31011963	3.29411769
486.31408691	3.31372547
486.31814575	3.37254906
486.32232666	3.33333325
486.32232666	3.29411769
486.32647705	3.27450991
486.33065796	3.23529410
486.33462524	3.21568632
486.33871460	3.23529410
486.33871460	3.25490189
486.34286499	3.21568632
486.34695435	3.21568632
486.35107422	3.19607854
486.35107422	3.21568632
486.35504150	3.15686274
486.35922241	3.15686274
486.36331177	3.17647052
486.36746216	3.07843137
486.36746216	2.98039222
486.37145996	2.98039222
486.37561035	2.88235283
486.37976074	2.78431368
486.37976074	2.72549009
486.38385010	2.70588231
486.38784790	2.68627453
486.39212036	2.68627453
486.39608765	2.64705873
486.39608765	2.66666675
486.40023804	2.66666675
486.40423584	2.70588231
486.40844727	2.78431368
486.40844727	2.78431368
486.41250610	2.72549009
486.41665649	2.66666675
486.42074585	2.68627453
486.42474365	2.74509811
486.42474365	2.72549009
486.42886353	2.60784316
486.43304443	2.54901958
486.43713379	2.54901958
486.43713379	2.56862736
486.44107056	2.41176462
486.44525146	2.31372547
486.44937134	2.21568632
486.45349121	2.13725495
486.45748901	2.11764717
486.46157837	2.11764717
486.46575928	2.15686274
486.46575928	2.15686274
486.46987915	2.15686274
486.47393799	2.11764717
486.47805786	2.07843137
486.48199463	2.11764717
486.48620605	2.21568632
486.49032593	2.31372547
486.49450684	2.41176462
486.49450684	2.47058821
486.49847412	2.52941179
486.50259399	2.52941179
486.50671387	2.56862736
486.51080322	2.62745094
486.51483154	2.68627453
486.51895142	2.76470590
486.52304077	2.82352948
486.52304077	2.86274505
486.52719116	2.84313726
486.53121948	2.82352948
486.53533936	2.82352948
486.53945923	2.74509811
486.54351807	2.64705873
486.54751587	2.60784316
486.55166626	2.62745094
486.55166626	2.68627453
486.55584717	2.66666675
486.55999756	2.60784316
486.56411743	2.54901958
486.56411743	2.45098042
486.56808472	2.49019599
486.57217407	2.54901958
486.57635498	2.54901958
486.58050537	2.54901958
486.58050537	2.58823538
486.58447266	2.54901958
486.58859253	2.43137264
486.59280396	2.39215684
486.59280396	2.39215684
486.59692383	2.49019599
486.60089111	2.58823538
486.60516357	2.58823538
486.60913086	2.54901958
486.60913086	2.50980401
486.61325073	2.52941179
486.61737061	2.58823538
486.62139893	2.64705873
486.62139893	2.68627453
486.62551880	2.68627453
486.62963867	2.60784316
486.63372803	2.52941179
486.63790894	2.47058821
486.63790894	2.45098042
486.64193726	2.45098042
486.64605713	2.37254906
486.65014648	2.27450991
486.65014648	2.23529410
486.65414429	2.17647052
486.65826416	2.13725495
486.66238403	2.19607854
486.66653442	2.25490189
486.66653442	2.27450991
486.67065430	2.27450991
486.67462158	2.29411769
486.67864990	2.37254906
486.67864990	2.49019599
486.68283081	2.52941179
486.68692017	2.56862736
486.69110107	2.52941179
486.69512939	2.49019599
486.69512939	2.45098042
486.69924927	2.49019599
486.70336914	2.54901958
486.70748901	2.60784316
486.70748901	2.68627453
486.71163940	2.70588231
486.71554565	2.68627453
486.71969604	2.58823538
486.72378540	2.68627453
486.72805786	2.74509811
486.73214722	2.72549009
486.73608398	2.68627453
486.73608398	2.60784316
486.74020386	2.54901958
486.74423218	2.54901958
486.74832153	2.45098042
486.75244141	2.37254906
486.75662231	2.23529410
486.76071167	2.23529410
486.76473999	2.25490189
486.76473999	2.29411769
486.76882935	2.27450991
486.77297974	2.17647052
486.77703857	2.17647052
486.78121948	2.21568632
486.78518677	2.21568632
486.78945923	2.17647052
486.79342651	2.17647052
486.79342651	2.25490189
486.79760742	2.31372547
486.80160522	2.35294127
486.80572510	2.35294127
486.80572510	2.33333325
486.80978394	2.25490189
486.81399536	2.09803915
486.81811523	2.01960778
486.82208252	2.05882359
486.82208252	2.17647052
486.82623291	2.17647052
486.83041382	2.17647052
486.83453369	2.17647052
486.83453369	2.11764717
486.83853149	2.11764717
486.84262085	2.19607854
486.84677124	2.27450991
486.85089111	2.25490189
486.85089111	2.17647052
486.85485840	2.15686274
486.85900879	2.19607854
486.86315918	2.27450991
486.86315918	2.37254906
486.86721802	2.37254906
486.87121582	2.29411769
486.87539673	2.27450991
486.87954712	2.27450991
486.87954712	2.33333325
486.88366699	2.43137264
486.88781738	2.54901958
486.89178467	2.56862736
486.89178467	2.60784316
486.89590454	2.62745094
486.90005493	2.70588231
486.90414429	2.70588231
486.90817261	2.66666675
486.90817261	2.60784316
486.91229248	2.58823538
486.91638184	2.64705873
486.92041016	2.68627453
486.92041016	2.66666675
486.92446899	2.64705873
486.92855835	2.64705873
486.93270874	2.66666675
486.93685913	2.68627453
486.93685913	2.68627453
486.94100952	2.72549009
486.94509888	2.76470590
486.94912720	2.74509811
486.94912720	2.78431368
486.95324707	2.76470590
486.95736694	2.68627453
486.96133423	2.64705873
486.96545410	2.64705873
486.96545410	2.66666675
486.96954346	2.68627453
486.97375488	2.66666675
486.97781372	2.54901958
486.97781372	2.39215684
486.98190308	2.41176462
486.98596191	2.45098042
486.99005127	2.43137264
486.99420166	2.43137264
486.99822998	2.45098042
487.00244141	2.47058821
487.00643921	2.37254906
487.00643921	2.25490189
487.01058960	2.27450991
487.01455688	2.31372547
487.01870728	2.29411769
487.02285767	2.23529410
487.02697754	2.19607854
487.03106689	2.15686274
487.03509521	2.13725495
487.03509521	2.17647052
487.03915405	2.13725495
487.04336548	2.09803915
487.04748535	2.11764717
487.05154419	2.25490189
487.05560303	2.25490189
487.05972290	2.19607854
487.06387329	2.19607854
487.06387329	2.23529410
487.06784058	2.21568632
487.07211304	2.13725495
487.07611084	2.23529410
487.07611084	2.37254906
487.08026123	2.43137264
487.08435059	2.41176462
487.08834839	2.29411769
487.09246826	2.27450991
487.09246826	2.39215684
487.09661865	2.54901958
487.10067749	2.62745094
487.10464478	2.60784316
487.10464478	2.45098042
487.10882568	2.39215684
487.11294556	2.39215684
487.11706543	2.47058821
487.12124634	2.60784316
487.12124634	2.70588231
487.12524414	2.76470590
487.12936401	2.82352948
487.13348389	2.74509811
487.13348389	2.66666675
487.13760376	2.62745094
487.14154053	2.64705873
487.14572144	2.62745094
487.14981079	2.56862736
487.14981079	2.56862736
487.15399170	2.64705873
487.15805054	2.70588231
487.16207886	2.74509811
487.16207886	2.78431368
487.16613770	2.74509811
487.17028809	2.66666675
487.17425537	2.56862736
487.17849731	2.52941179
487.17849731	2.54901958
487.18261719	2.54901958
487.18673706	2.49019599
487.19085693	2.43137264
487.19085693	2.41176462
487.19482422	2.39215684
487.19912720	2.39215684
487.20312500	2.33333325
487.20718384	2.27450991
487.20718384	2.25490189
487.21118164	2.23529410
487.21536255	2.25490189
487.21948242	2.23529410
487.21948242	2.19607854
487.22354126	2.07843137
487.22772217	2.01960778
487.23168945	1.92156863
487.23580933	1.94117641
487.23580933	2.00000000
487.24002075	2.07843137
487.24407959	2.07843137
487.24810791	2.01960778
487.24810791	2.03921580
487.25216675	2.07843137
487.25634766	2.09803915
487.26049805	2.17647052
487.26461792	2.27450991
487.26858521	2.37254906
487.27273560	2.43137264
487.27685547	2.35294127
487.27685547	2.37254906
487.28097534	2.39215684
487.28509521	2.43137264
487.28903198	2.47058821
487.29327393	2.56862736
487.29733276	2.56862736
487.30139160	2.49019599
487.30545044	2.47058821
487.30545044	2.47058821
487.30957031	2.37254906
487.31375122	2.35294127
487.31777954	2.41176462
487.32180786	2.49019599
487.32598877	2.52941179
487.33007813	2.45098042
487.33419800	2.41176462
487.33419800	2.43137264
487.33819580	2.45098042
487.34231567	2.37254906
487.34643555	2.29411769
487.34643555	2.27450991
487.35055542	2.43137264
487.35455322	2.52941179
487.35867310	2.52941179
487.36279297	2.49019599
487.36279297	2.47058821
487.36697388	2.45098042
487.37109375	2.45098042
487.37509155	2.43137264
487.37509155	2.47058821
487.37927246	2.49019599
487.38336182	2.50980401
487.38748169	2.52941179
487.39160156	2.45098042
487.39160156	2.41176462
487.39559937	2.43137264
487.39978027	2.49019599
487.40390015	2.47058821
487.40390015	2.50980401
487.40789795	2.58823538
487.41213989	2.68627453
487.41613770	2.76470590
487.42025757	2.70588231
487.42025757	2.70588231
487.42437744	2.62745094
487.42828369	2.52941179
487.43246460	2.58823538
487.43246460	2.66666675
487.43652344	2.72549009
487.44070435	2.76470590
487.44473267	2.64705873
487.44885254	2.41176462
487.44885254	2.31372547
487.45297241	2.37254906
487.45712280	2.41176462
487.46118164	2.50980401
487.46118164	2.60784316
487.46520996	2.56862736
487.46936035	2.43137264
487.47344971	2.33333325
487.47756958	2.25490189
487.47756958	2.35294127
487.48159790	2.39215684
487.48565674	2.39215684
487.48986816	2.27450991
487.48986816	2.21568632
487.49395752	2.17647052
487.49810791	2.15686274
487.50207520	2.23529410
487.50622559	2.35294127
487.50622559	2.37254906
487.51034546	2.39215684
487.51449585	2.41176462
487.51843262	2.29411769
487.51843262	2.29411769
487.52258301	2.43137264
487.52670288	2.49019599
487.53085327	2.50980401
487.53482056	2.35294127
487.53909302	2.25490189
487.54306030	2.23529410
487.54718018	2.23529410
487.54718018	2.13725495
487.55126953	2.15686274
487.55532837	2.21568632
487.55947876	2.21568632
487.56359863	2.11764717
487.56762695	2.19607854
487.57168579	2.23529410
487.57586670	2.09803915
487.57586670	2.01960778
487.57998657	2.11764717
487.58410645	2.33333325
487.58822632	2.45098042
487.59219360	2.43137264
487.59631348	2.41176462
487.60043335	2.29411769
487.60455322	2.29411769
487.60455322	2.37254906
487.60855103	2.49019599
487.61273193	2.56862736
487.61685181	2.64705873
487.62097168	2.58823538
487.62509155	2.60784316
487.62908936	2.58823538
487.63323975	2.58823538
487.63323975	2.54901958
487.63735962	2.45098042
487.64135742	2.54901958
487.64547729	2.70588231
487.64547729	2.74509811
487.64953613	2.56862736
487.65374756	2.54901958
487.65786743	2.62745094
487.66180420	2.64705873
487.66180420	2.58823538
487.66595459	2.56862736
487.67001343	2.58823538
487.67419434	2.58823538
487.67419434	2.58823538
487.67819214	2.64705873
487.68231201	2.70588231
487.68646240	2.68627453
487.69061279	2.56862736
487.69061279	2.50980401
487.69458008	2.47058821
487.69873047	2.45098042
487.70281982	2.41176462
487.70281982	2.45098042
487.70697021	2.47058821
487.71102905	2.47058821
487.71508789	2.56862736
487.71920776	2.56862736
487.71920776	2.50980401
487.72335815	2.52941179
487.72741699	2.52941179
487.73178101	2.45098042
487.73178101	2.37254906
487.73565674	2.35294127
487.73974609	2.47058821
487.74383545	2.54901958
487.74798584	2.54901958
487.74798584	2.47058821
487.75216675	2.41176462
487.75616455	2.45098042
487.76013184	2.52941179
487.76013184	2.39215684
487.76431274	2.33333325
487.76831055	2.33333325
487.77243042	2.33333325
487.77651978	2.37254906
487.77651978	2.41176462
487.78073120	2.43137264
487.78463745	2.43137264
487.78881836	2.47058821
487.78881836	2.37254906
487.79290771	2.31372547
487.79705811	2.27450991
487.80117798	2.33333325
487.80520630	2.35294127
487.80941772	2.27450991
487.81350708	2.31372547
487.81768799	2.29411769
487.81768799	2.25490189
487.82153320	2.19607854
487.82565308	2.21568632
487.82983398	2.23529410
487.83395386	2.19607854
487.83804321	2.27450991
487.84204102	2.41176462
487.84616089	2.47058821
487.84616089	2.47058821
487.85031128	2.39215684
487.85443115	2.29411769
487.85845947	2.27450991
487.86260986	2.54901958
487.86672974	2.60784316
487.87084961	2.60784316
487.87496948	2.70588231
487.87496948	2.76470590
487.87908936	2.74509811
487.88308716	2.74509811
487.88720703	2.84313726
487.89135742	2.50980401
487.89532471	2.45098042
487.89944458	2.58823538
487.90356445	2.74509811
487.90356445	2.68627453
487.90762329	2.49019599
487.91171265	2.47058821
487.91574097	2.58823538
487.91574097	2.66666675
487.91995239	2.66666675
487.92410278	2.60784316
487.92807007	2.50980401
487.93222046	2.47058821
487.93222046	2.50980401
487.93634033	2.50980401
487.94046021	2.45098042
487.94454956	2.41176462
487.94454956	2.43137264
487.94857788	2.41176462
487.95269775	2.27450991
487.95684814	2.31372547
487.96090698	2.41176462
487.96090698	2.47058821
487.96502686	2.50980401
487.96911621	2.45098042
487.97320557	2.50980401
487.97320557	2.58823538
487.97735596	2.60784316
487.98168945	2.54901958
487.98553467	2.43137264
487.98965454	2.41176462
487.98965454	2.33333325
487.99371338	2.35294127
487.99780273	2.39215684
488.00198364	2.41176462
488.00198364	2.52941179
488.00604248	2.56862736
488.01010132	2.60784316
488.01425171	2.60784316
488.01834106	2.50980401
488.01834106	2.45098042
488.02236938	2.39215684
488.02642822	2.41176462
488.03060913	2.50980401
488.03060913	2.56862736
488.03463745	2.49019599
488.03869629	2.50980401
488.04278564	2.60784316
488.04693604	2.58823538
488.04693604	2.47058821
488.05108643	2.37254906
488.05508423	2.37254906
488.05920410	2.33333325
488.05920410	2.37254906
488.06332397	2.35294127
488.06744385	2.29411769
488.07153320	2.25490189
488.07553101	2.25490189
488.07968140	2.17647052
488.08383179	2.13725495
488.08789063	2.07843137
488.08789063	2.15686274
488.09204102	2.21568632
488.09600830	2.23529410
488.10018921	2.27450991
488.10427856	2.25490189
488.10830688	2.35294127
488.11251831	2.47058821
488.11660767	2.54901958
488.11660767	2.62745094
488.12072754	2.70588231
488.12484741	2.56862736
488.12884521	2.50980401
488.13299561	2.72549009
488.13708496	2.80392146
488.14120483	2.82352948
488.14535522	2.72549009
488.14535522	2.68627453
488.14941406	2.68627453
488.15356445	2.64705873
488.15759277	2.62745094
488.16165161	2.68627453
488.16567993	2.70588231
488.16983032	2.68627453
488.17401123	2.72549009
488.17401123	2.72549009
488.17807007	2.74509811
488.18203735	2.68627453
488.18621826	2.66666675
488.18621826	2.60784316
488.19033813	2.56862736
488.19439697	2.62745094
488.19848633	2.70588231
488.20257568	2.74509811
488.20257568	2.66666675
488.20669556	2.62745094
488.21081543	2.47058821
488.21499634	2.37254906
488.21499634	2.39215684
488.21905518	2.49019599
488.22308350	2.52941179
488.22711182	2.47058821
488.23135376	2.37254906
488.23135376	2.33333325
488.23532104	2.35294127
488.23941040	2.35294127
488.24359131	2.31372547
488.24359131	2.31372547
488.24771118	2.35294127
488.25170898	2.43137264
488.25582886	2.39215684
488.25991821	2.39215684
488.25991821	2.41176462
488.26406860	2.41176462
488.26806641	2.37254906
488.27215576	2.35294127
488.27215576	2.33333325
488.27630615	2.37254906
488.28039551	2.49019599
488.28457642	2.54901958
488.28863525	2.49019599
488.28863525	2.47058821
488.29269409	2.50980401
488.29681396	2.52941179
488.30123901	2.56862736
488.30123901	2.66666675
488.30511475	2.70588231
488.30908203	2.66666675
488.31329346	2.60784316
488.31732178	2.54901958
488.31732178	2.56862736
488.32144165	2.62745094
488.32540894	2.50980401
488.32962036	2.52941179
488.32962036	2.58823538
488.33370972	2.56862736
488.33779907	2.54901958
488.34179688	2.45098042
488.34613037	2.43137264
488.35006714	2.37254906
488.35412598	2.29411769
488.35830688	2.23529410
488.35830688	2.27450991
488.36230469	2.35294127
488.36645508	2.39215684
488.37060547	2.31372547
488.37472534	2.21568632
488.37872314	2.25490189
488.38284302	2.31372547
488.38696289	2.31372547
488.38696289	2.31372547
488.39111328	2.39215684
488.39508057	2.45098042
488.39920044	2.52941179
488.40335083	2.60784316
488.40744019	2.62745094
488.41156006	2.60784316
488.41552734	2.70588231
488.41552734	2.74509811
488.41970825	2.82352948
488.42376709	2.92156863
488.42794800	2.96078420
488.42794800	2.88235283
488.43212891	2.86274505
488.43603516	2.84313726
488.44021606	2.74509811
488.44430542	2.60784316
488.44430542	2.52941179
488.44848633	2.58823538
488.45245361	2.56862736
488.45660400	2.50980401
488.45660400	2.52941179
488.46072388	2.64705873
488.46484375	2.64705873
488.46881104	2.64705873
488.47308350	2.54901958
488.47308350	2.50980401
488.47702026	2.54901958
488.48147583	2.56862736
488.48532104	2.45098042
488.48532104	2.29411769
488.48931885	2.31372547
488.49343872	2.39215684
488.49758911	2.47058821
488.50167847	2.50980401
488.50167847	2.49019599
488.50570679	2.39215684
488.50982666	2.35294127
488.51394653	2.39215684
488.51394653	2.45098042
488.51803589	2.41176462
488.52206421	2.39215684
488.52618408	2.31372547
488.53033447	2.35294127
488.53033447	2.37254906
488.53445435	2.39215684
488.53842163	2.43137264
488.54251099	2.43137264
488.54251099	2.43137264
488.54669189	2.54901958
488.55084229	2.64705873
488.55477905	2.52941179
488.55908203	2.41176462
488.55908203	2.37254906
488.56307983	2.39215684
488.56716919	2.41176462
488.57135010	2.43137264
488.57135010	2.49019599
488.57531738	2.45098042
488.57946777	2.45098042
488.58358765	2.47058821
488.58767700	2.50980401
488.58767700	2.50980401
488.59167480	2.52941179
488.59582520	2.54901958
488.60003662	2.56862736
488.60003662	2.60784316
488.60400391	2.54901958
488.60818481	2.45098042
488.61218262	2.37254906
488.61633301	2.49019599
488.62045288	2.47058821
488.62460327	2.37254906
488.62869263	2.31372547
488.62869263	2.37254906
488.63269043	2.43137264
488.63684082	2.47058821
488.64096069	2.47058821
488.64508057	2.47058821
488.64907837	2.45098042
488.65319824	2.47058821
488.65737915	2.45098042
488.65737915	2.41176462
488.66146851	2.39215684
488.66549683	2.39215684
488.66961670	2.37254906
488.67370605	2.47058821
488.67785645	2.58823538
488.68185425	2.56862736
488.68606567	2.56862736
488.68606567	2.56862736
488.69006348	2.45098042
488.69415283	2.37254906
488.69836426	2.35294127
488.70230103	2.49019599
488.70645142	2.54901958
488.71057129	2.58823538
488.71472168	2.58823538
488.71472168	2.52941179
488.71868896	2.47058821
488.72274780	2.49019599
488.72689819	2.50980401
488.72689819	2.49019599
488.73101807	2.47058821
488.73519897	2.50980401
488.73922729	2.54901958
488.74343872	2.56862736
488.74343872	2.47058821
488.74743652	2.37254906
488.75158691	2.37254906
488.75555420	2.35294127
488.75555420	2.21568632
488.75967407	2.21568632
488.76376343	2.27450991
488.76791382	2.33333325
488.77206421	2.33333325
488.77206421	2.33333325
488.77606201	2.35294127
488.78021240	2.43137264
488.78436279	2.43137264
488.78436279	2.45098042
488.78836060	2.35294127
488.79251099	2.11764717
488.79660034	1.92156863
488.80068970	1.90196073
488.80068970	2.00000000
488.80487061	2.05882359
488.80883789	2.09803915
488.81307983	2.13725495
488.81307983	2.21568632
488.81710815	2.29411769
488.82116699	2.31372547
488.82513428	2.29411769
488.82931519	2.31372547
488.82931519	2.33333325
488.83343506	2.33333325
488.83755493	2.33333325
488.84167480	2.35294127
488.84167480	2.31372547
488.84570313	2.27450991
488.84979248	2.19607854
488.85394287	2.17647052
488.85800171	2.19607854
488.85800171	2.21568632
488.86206055	2.23529410
488.86611938	2.17647052
488.87036133	2.13725495
488.87036133	2.11764717
488.87448120	2.07843137
488.87860107	2.00000000
488.88256836	2.01960778
488.88671875	2.05882359
488.89083862	2.03921580
488.89492798	2.09803915
488.89913940	2.21568632
488.89913940	2.31372547
488.90313721	2.37254906
488.90725708	2.43137264
488.91134644	2.43137264
488.91534424	2.45098042
488.91949463	2.50980401
488.92361450	2.50980401
488.92764282	2.49019599
488.92764282	2.45098042
488.93170166	2.45098042
488.93582153	2.47058821
488.94009399	2.49019599
488.94406128	2.49019599
488.94824219	2.49019599
488.95220947	2.45098042
488.95629883	2.45098042
488.95629883	2.43137264
488.96044922	2.45098042
488.96459961	2.39215684
488.96871948	2.39215684
488.97268677	2.47058821
488.97680664	2.52941179
488.98089600	2.56862736
488.98516846	2.54901958
488.98516846	2.49019599
488.98913574	2.47058821
488.99328613	2.45098042
488.99758911	2.43137264
488.99758911	2.37254906
489.00146484	2.29411769
489.00540161	2.23529410
489.00958252	2.13725495
489.01370239	2.00000000
489.01370239	1.78431368
489.01779175	1.50980389
489.02194214	1.33333337
489.02606201	1.21568632
489.02606201	1.25490201
489.03005981	1.35294116
489.03417969	1.43137252
489.03829956	1.54901958
489.04226685	1.66666663
489.04226685	1.78431368
489.04638672	1.94117641
489.05053711	2.05882359
489.05465698	2.11764717
489.05465698	2.13725495
489.05871582	2.19607854
489.06280518	2.29411769
489.06692505	2.39215684
489.07110596	2.41176462
489.07110596	2.33333325
489.07519531	2.25490189
489.07919312	2.17647052
489.08331299	2.05882359
489.08331299	1.84313726
489.08743286	1.66666663
489.09158325	1.60784316
489.09555054	1.58823526
489.09967041	1.64705884
489.09967041	1.66666663
489.10375977	1.66666663
489.10794067	1.68627453
489.11203003	1.70588231
489.11203003	1.70588231
489.11605835	1.64705884
489.12020874	1.56862748
489.12432861	1.50980389
489.12847900	1.52941179
489.12847900	1.62745094
489.13244629	1.76470590
489.13656616	1.88235295
489.14068604	1.94117641
489.14068604	2.00000000
489.14477539	2.09803915
489.14877319	2.17647052
489.15304565	2.19607854
489.15698242	2.25490189
489.16119385	2.31372547
489.16519165	2.39215684
489.16921997	2.50980401
489.16921997	2.60784316
489.17346191	2.68627453
489.17752075	2.72549009
489.18173218	2.72549009
489.18569946	2.62745094
489.18981934	2.58823538
489.19400024	2.64705873
489.19802856	2.74509811
489.19802856	2.80392146
489.20202637	2.88235283
489.20617676	2.96078420
489.21032715	3.01960778
489.21444702	3.23529410
489.21844482	3.41176462
489.22256470	3.58823538
489.22665405	3.72549009
489.22665405	3.80392146
489.23080444	3.82352948
489.23489380	3.86274505
489.23901367	3.94117641
489.24307251	3.98039222
489.24731445	4.01960802
489.25128174	4.03921556
489.25543213	4.01960802
489.25543213	4.00000000
489.25939941	3.96078420
489.26361084	3.84313726
489.26766968	3.68627453
489.26766968	3.49019599
489.27178955	3.33333325
489.27575684	3.15686274
489.28005981	2.98039222
489.28405762	2.78431368
489.28405762	2.56862736
489.28817749	2.37254906
489.29220581	2.21568632
489.29638672	2.13725495
489.29638672	2.11764717
489.30047607	2.05882359
489.30462646	2.01960778
489.30859375	2.11764717
489.31271362	2.25490189
489.31271362	2.35294127
489.31680298	2.37254906
489.32092285	2.35294127
489.32504272	2.37254906
489.32504272	2.37254906
489.32910156	2.37254906
489.33319092	2.47058821
489.33728027	2.62745094
489.34143066	2.78431368
489.34143066	2.92156863
489.34545898	3.07843137
489.34954834	3.23529410
489.35360718	3.43137264
489.35360718	3.56862736
489.35778809	3.70588231
489.36187744	3.76470590
489.36605835	3.78431368
489.36999512	3.80392146
489.36999512	3.82352948
489.37417603	3.92156863
489.37835693	3.96078420
489.38244629	3.92156863
489.38244629	3.86274505
489.38644409	3.80392146
489.39059448	3.70588231
489.39462280	3.60784316
489.39883423	3.54901958
489.39883423	3.50980401
489.40274048	3.43137264
489.40692139	3.31372547
489.41110229	3.19607854
489.41110229	3.13725495
489.41525269	3.01960778
489.41925049	2.88235283
489.42340088	2.74509811
489.42745972	2.62745094
489.42745972	2.52941179
489.43157959	2.49019599
489.43557739	2.49019599
489.43975830	2.52941179
489.43975830	2.58823538
489.44384766	2.66666675
489.44796753	2.74509811
489.45205688	2.72549009
489.45611572	2.66666675
489.46026611	2.66666675
489.46441650	2.60784316
489.46850586	2.58823538
489.46850586	2.56862736
489.47250366	2.52941179
489.47662354	2.47058821
489.48074341	2.39215684
489.48486328	2.00000000
489.48889160	1.80392158
489.49307251	1.66666663
489.49707031	1.50980389
489.49707031	1.39215684
489.50119019	1.31372547
489.50531006	1.25490201
489.50936890	1.23529410
489.51345825	1.11764705
489.51757813	1.05882359
489.52172852	0.92156863
489.52587891	0.68627453
489.52587891	0.25490198
489.52987671	0.01960784
489.53402710	0.00000000
489.53814697	0.01960784
489.53814697	0.01960784
489.54211426	0.01960784
489.54626465	0.03921569
489.55038452	0.25490198
489.55450439	0.43137255
489.55450439	0.50980395
489.55859375	0.56862748
489.56256104	0.70588237
489.56680298	0.94117647
489.56680298	1.25490201
489.57089233	1.62745094
489.57504272	1.94117641
489.57910156	2.23529410
489.58309937	2.35294127
489.58309937	2.29411769
489.58712769	2.07843137
489.59133911	1.86274505
489.59548950	1.78431368
489.59548950	1.80392158
489.59942627	1.82352936
489.60357666	1.86274505
489.60766602	1.82352936
489.61184692	1.66666663
489.61184692	1.47058821
489.61578369	1.43137252
489.62005615	1.43137252
489.62405396	1.37254906
489.62405396	1.33333337
489.62820435	1.31372547
489.63217163	1.19607842
489.63632202	1.11764705
489.64047241	1.17647064
489.64047241	1.31372547
489.64456177	1.47058821
489.64871216	1.62745094
489.65270996	1.90196073
489.65270996	2.15686274
489.65682983	2.29411769
489.66091919	2.41176462
489.66510010	2.56862736
489.66921997	2.78431368
489.66921997	2.94117641
489.67315674	3.00000000
489.67733765	2.98039222
489.68139648	2.92156863
489.68139648	2.90196085
489.68545532	2.88235283
489.68951416	2.78431368
489.69363403	2.64705873
489.69778442	2.50980401
489.69778442	2.43137264
489.70190430	2.25490189
489.70608521	2.00000000
489.70999146	1.92156863
489.70999146	2.05882359
489.71423340	2.07843137
489.71832275	2.07843137
489.72229004	2.37254906
489.72640991	3.19607854
489.73059082	3.35294127
489.73468018	3.35294127
489.73886108	3.19607854
489.73886108	2.98039222
489.74310303	2.84313726
489.74707031	2.74509811
489.75119019	2.74509811
489.75518799	2.92156863
489.75924683	2.98039222
489.76333618	3.03921580
489.76739502	3.11764717
489.76739502	3.11764717
489.77148438	3.11764717
489.77548218	3.09803915
489.77966309	3.03921580
489.78375244	2.70588231
489.78796387	2.52941179
489.79199219	2.33333325
489.79602051	2.15686274
489.79602051	2.07843137
489.80029297	2.09803915
489.80429077	2.15686274
489.80847168	2.21568632
489.81246948	2.50980401
489.81661987	2.72549009
489.82067871	3.00000000
489.82476807	3.27450991
489.82476807	3.52941179
489.82879639	3.72549009
489.83303833	3.90196085
489.83700562	4.11764717
489.83700562	4.27450991
489.84115601	4.35294104
489.84527588	4.41176462
489.84924316	4.45098019
489.85339355	4.43137264
489.85339355	4.39215708
489.85754395	4.39215708
489.86166382	4.31372547
489.86584473	4.19607830
489.86584473	4.11764717
489.86978149	4.03921556
489.87384033	4.00000000
489.87802124	4.00000000
489.88208008	4.01960802
489.88208008	3.96078420
489.88613892	3.86274505
489.89031982	3.70588231
489.89437866	3.62745094
489.89437866	3.52941179
489.89862061	3.47058821
489.90255737	3.43137264
489.90670776	3.37254906
489.91076660	3.27450991
489.91076660	3.19607854
489.91497803	3.17647052
489.91906738	3.11764717
489.92306519	3.03921580
489.92306519	3.03921580
489.92709351	3.07843137
489.93130493	2.98039222
489.93536377	3.01960778
489.93942261	3.13725495
489.93942261	3.23529410
489.94357300	3.25490189
489.94772339	3.29411769
489.95181274	3.29411769
489.95181274	3.29411769
489.95581055	3.29411769
489.96008301	3.35294127
489.96408081	3.33333325
489.96820068	3.27450991
489.96820068	3.25490189
489.97232056	3.29411769
489.97628784	3.29411769
489.98052979	3.31372547
489.98052979	3.35294127
489.98464966	3.39215684
489.98876953	3.39215684
489.99273682	3.39215684
489.99697876	3.47058821
490.00097656	3.49019599
490.00515747	3.47058821
490.00924683	3.47058821
490.00924683	3.41176462
490.01330566	3.45098042
490.01736450	3.50980401
490.02145386	3.54901958
490.02554321	3.39215684
490.02960205	3.25490189
490.03375244	3.17647052
490.03787231	3.09803915
490.03787231	3.07843137
490.04199219	3.00000000
490.04611206	2.90196085
490.05014038	2.86274505
490.05419922	2.84313726
490.05831909	2.80392146
490.06237793	2.72549009
490.06652832	2.64705873
490.06652832	2.54901958
490.07064819	2.43137264
490.07467651	2.29411769
490.07882690	2.21568632
490.08279419	2.03921580
490.08706665	1.92156863
490.09103394	1.78431368
490.09515381	1.70588231
490.09515381	1.56862748
490.09918213	1.49019611
490.10327148	1.39215684
490.10739136	1.27450979
490.10739136	1.15686274
490.11154175	1.07843137
490.11553955	1.01960790
490.11965942	1.03921568
490.12374878	1.01960790
490.12374878	0.96078432
490.12792969	0.92156863
490.13198853	0.96078432
490.13604736	1.03921568
490.13604736	1.15686274
490.14019775	1.33333337
490.14425659	1.47058821
490.14846802	1.64705884
490.15258789	1.86274505
490.15258789	2.11764717
490.15652466	2.39215684
490.16070557	2.68627453
490.16482544	2.82352948
490.16482544	2.98039222
490.16900635	3.15686274
490.17303467	3.35294127
490.17697144	3.54901958
490.18115234	3.74509811
490.18115234	3.86274505
490.18524170	3.88235283
490.18927002	3.92156863
490.19342041	4.01960802
490.19342041	4.09803915
490.19760132	4.13725471
490.20166016	4.19607830
490.20581055	4.19607830
490.20974731	4.19607830
490.20974731	4.21568632
490.21395874	4.21568632
490.21807861	4.21568632
490.22225952	4.23529434
490.22225952	4.19607830
490.22622681	4.13725471
490.23037720	4.11764717
490.23449707	4.03921556
490.23861694	3.98039222
490.23861694	3.90196085
490.24261475	3.82352948
490.24670410	3.78431368
490.25097656	3.76470590
490.25097656	3.66666675
490.25497437	3.50980401
490.25912476	3.41176462
490.26306152	3.33333325
490.26715088	3.19607854
490.26715088	2.98039222
490.27136230	2.74509811
490.27548218	2.54901958
490.27951050	2.41176462
490.27951050	2.25490189
490.28363037	2.07843137
490.28775024	1.88235295
490.29187012	1.70588231
490.29602051	1.49019611
490.30010986	1.39215684
490.30404663	1.31372547
490.30813599	1.15686274
490.30813599	1.03921568
490.31234741	0.94117647
490.31634521	0.80392158
490.32046509	0.82352942
490.32464600	0.90196079
490.32876587	0.98039216
490.33276367	1.07843137
490.33676147	1.19607842
490.33676147	1.37254906
490.34088135	1.50980389
490.34509277	1.62745094
490.34915161	1.70588231
490.35314941	1.90196073
490.35729980	2.03921580
490.36132813	2.11764717
490.36553955	2.21568632
490.36553955	2.33333325
490.36947632	2.43137264
490.37368774	2.52941179
490.37780762	2.64705873
490.37780762	2.70588231
490.38195801	2.70588231
490.38604736	2.62745094
490.39004517	2.60784316
490.39410400	2.66666675
490.39410400	2.70588231
490.39831543	2.72549009
490.40243530	2.76470590
490.40643311	2.78431368
490.40643311	2.80392146
490.41055298	2.86274505
490.41470337	2.86274505
490.41876221	2.84313726
490.42294312	2.84313726
490.42294312	2.82352948
490.42706299	2.78431368
490.43103027	2.76470590
490.43515015	2.74509811
490.43515015	2.72549009
490.43917847	2.72549009
490.44329834	2.68627453
490.44744873	2.70588231
490.45156860	2.68627453
490.45156860	2.62745094
490.45571899	2.60784316
490.45965576	2.62745094
490.46383667	2.60784316
490.46383667	2.62745094
490.46795654	2.60784316
490.47207642	2.54901958
490.47604370	2.45098042
490.48016357	2.35294127
490.48016357	2.25490189
490.48425293	2.19607854
490.48843384	2.05882359
490.49252319	1.86274505
490.49252319	1.66666663
490.49655151	1.52941179
490.50067139	1.56862748
490.50479126	1.64705884
490.50888062	1.62745094
490.50888062	1.58823526
490.51309204	1.66666663
490.51705933	1.68627453
490.52114868	1.74509799
490.52114868	1.86274505
490.52529907	1.92156863
490.52929688	1.94117641
490.53341675	2.00000000
490.53753662	2.07843137
490.53753662	2.15686274
490.54165649	2.25490189
490.54562378	2.31372547
490.54977417	2.35294127
490.54977417	2.35294127
490.55386353	2.39215684
490.55804443	2.37254906
490.56219482	2.39215684
490.56619263	2.45098042
490.57028198	2.35294127
490.57437134	2.31372547
490.57858276	2.33333325
490.57858276	2.35294127
490.58255005	2.41176462
490.58666992	2.43137264
490.59075928	2.41176462
490.59497070	2.39215684
490.59906006	2.27450991
490.60302734	2.07843137
490.60714722	1.84313726
490.60714722	1.60784316
490.61129761	1.43137252
490.61538696	1.23529410
490.61950684	1.09803927
490.62350464	0.98039216
490.62771606	0.92156863
490.63183594	0.78431374
490.63595581	0.70588237
490.63595581	0.70588237
490.64007568	0.72549021
490.64404297	0.76470590
490.64819336	0.82352942
490.64819336	0.88235295
490.65231323	0.86274511
490.65628052	0.86274511
490.66043091	0.92156863
490.66455078	1.00000000
490.66455078	1.05882359
490.66870117	1.07843137
490.67272949	1.09803927
490.67684937	1.17647064
490.67684937	1.25490201
490.68099976	1.31372547
490.68505859	1.33333337
490.68917847	1.35294116
490.69323730	1.37254906
490.69323730	1.43137252
490.69726563	1.47058821
490.70135498	1.52941179
490.70553589	1.54901958
490.70553589	1.56862748
490.70947266	1.60784316
490.71371460	1.64705884
490.71780396	1.70588231
490.72192383	1.74509799
490.72192383	1.74509799
490.72607422	1.78431368
490.73004150	1.82352936
490.73419189	1.84313726
490.73419189	1.86274505
490.73828125	1.92156863
490.74240112	2.00000000
490.74636841	2.05882359
490.75048828	2.05882359
490.75048828	2.07843137
490.75463867	2.11764717
490.75875854	2.09803915
490.76293945	2.15686274
490.76293945	2.23529410
490.76705933	2.27450991
490.77102661	2.29411769
490.77517700	2.27450991
490.77926636	2.29411769
490.77926636	2.27450991
490.78326416	2.23529410
490.78738403	2.19607854
490.79159546	2.15686274
490.79159546	2.21568632
490.79571533	2.27450991
490.79971313	2.31372547
490.80386353	2.31372547
490.80795288	2.29411769
490.80795288	2.27450991
490.81204224	2.27450991
490.81616211	2.19607854
490.82019043	2.17647052
490.82019043	2.19607854
490.82437134	2.23529410
490.82846069	2.29411769
490.83258057	2.31372547
490.83654785	2.27450991
490.84069824	2.27450991
490.84494019	2.25490189
490.84887695	2.25490189
490.84887695	2.25490189
490.85302734	2.23529410
490.85702515	2.19607854
490.86114502	2.21568632
490.86523438	2.25490189
490.86929321	2.23529410
490.87335205	2.23529410
490.87753296	2.25490189
490.87753296	2.25490189
490.88162231	2.23529410
490.88580322	2.25490189
490.88980103	2.31372547
490.89401245	2.27450991
490.89804077	2.25490189
490.90216064	2.29411769
490.90631104	2.33333325
490.90631104	2.35294127
490.91030884	2.37254906
490.91439819	2.35294127
490.91854858	2.29411769
490.91854858	2.29411769
490.92248535	2.39215684
490.92666626	2.39215684
490.93081665	2.43137264
490.93493652	2.39215684
490.93493652	2.35294127
490.93905640	2.37254906
490.94305420	2.37254906
490.94714355	2.41176462
490.94714355	2.47058821
490.95132446	2.47058821
490.95544434	2.49019599
490.95941162	2.52941179
490.96347046	2.56862736
490.96347046	2.62745094
490.96768188	2.60784316
490.97186279	2.56862736
490.97598267	2.54901958
490.97598267	2.54901958
490.98010254	2.54901958
490.98410034	2.58823538
490.98825073	2.60784316
490.99237061	2.52941179
490.99237061	2.52941179
490.99639893	2.54901958
491.00051880	2.56862736
491.00460815	2.56862736
491.00460815	2.58823538
491.00869751	2.56862736
491.01269531	2.52941179
491.01684570	2.54901958
491.02105713	2.58823538
491.02105713	2.60784316
491.02499390	2.56862736
491.02917480	2.54901958
491.03332520	2.54901958
491.03332520	2.54901958
491.03729248	2.54901958
491.04138184	2.52941179
491.04556274	2.54901958
491.04962158	2.58823538
491.04962158	2.60784316
491.05364990	2.58823538
491.05773926	2.58823538
491.06195068	2.56862736
491.06195068	2.62745094
491.06604004	2.62745094
491.07012939	2.62745094
491.07412720	2.66666675
491.07830811	2.58823538
491.07830811	2.58823538
491.08239746	2.56862736
491.08636475	2.50980401
491.09060669	2.52941179
491.09060669	2.54901958
491.09463501	2.60784316
491.09875488	2.64705873
491.10287476	2.60784316
491.10702515	2.58823538
491.11096191	2.56862736
491.11514282	2.52941179
491.11920166	2.50980401
491.11920166	2.62745094
491.12332153	2.72549009
491.12738037	2.68627453
491.13159180	2.60784316
491.13571167	2.56862736
491.13964844	2.52941179
491.14379883	2.54901958
491.14804077	2.56862736
491.14804077	2.54901958
491.15203857	2.50980401
491.15615845	2.49019599
491.16015625	2.50980401
491.16427612	2.43137264
491.16836548	2.50980401
491.17251587	2.49019599
491.17648315	2.45098042
491.17648315	2.47058821
491.18063354	2.47058821
491.18472290	2.43137264
491.18890381	2.47058821
491.18890381	2.49019599
491.19305420	2.49019599
491.19708252	2.45098042
491.20114136	2.47058821
491.20529175	2.47058821
491.20529175	2.49019599
491.20938110	2.45098042
491.21343994	2.43137264
491.21752930	2.45098042
491.21752930	2.54901958
491.22164917	2.58823538
491.22579956	2.50980401
491.22976685	2.45098042
491.23400879	2.43137264
491.23400879	2.43137264
491.23803711	2.45098042
491.24215698	2.43137264
491.24636841	2.49019599
491.24636841	2.47058821
491.25027466	2.45098042
491.25442505	2.45098042
491.25854492	2.45098042
491.26269531	2.45098042
491.26269531	2.47058821
491.26660156	2.47058821
491.27075195	2.47058821
491.27487183	2.43137264
491.27487183	2.41176462
491.27905273	2.49019599
491.28302002	2.50980401
491.28717041	2.50980401
491.29132080	2.50980401
491.29132080	2.43137264
491.29553223	2.45098042
491.29940796	2.50980401
491.30346680	2.54901958
491.30346680	2.54901958
491.30764771	2.52941179
491.31170654	2.56862736
491.31591797	2.52941179
491.32000732	2.47058821
491.32000732	2.49019599
491.32403564	2.58823538
491.32812500	2.60784316
491.33227539	2.60784316
491.33227539	2.56862736
491.33627319	2.50980401
491.34042358	2.49019599
491.34457397	2.49019599
491.34866333	2.50980401
491.34866333	2.47058821
491.35278320	2.41176462
491.35678101	2.45098042
491.36108398	2.45098042
491.36108398	2.49019599
491.36511230	2.49019599
491.36923218	2.47058821
491.37313843	2.45098042
491.37731934	2.49019599
491.38146973	2.52941179
491.38555908	2.49019599
491.38958740	2.41176462
491.38958740	2.39215684
491.39364624	2.43137264
491.39782715	2.45098042
491.40191650	2.50980401
491.40606689	2.50980401
491.41003418	2.45098042
491.41418457	2.43137264
491.41830444	2.45098042
491.41830444	2.39215684
491.42236328	2.41176462
491.42639160	2.41176462
491.43048096	2.45098042
491.43463135	2.45098042
491.43875122	2.43137264
491.44281006	2.43137264
491.44708252	2.37254906
491.44708252	2.41176462
491.45104980	2.45098042
491.45516968	2.45098042
491.45932007	2.47058821
491.45932007	2.47058821
491.46331787	2.50980401
491.46743774	2.56862736
491.47155762	2.64705873
491.47561646	2.66666675
491.47561646	2.50980401
491.47961426	2.43137264
491.48379517	2.43137264
491.48797607	2.39215684
491.48797607	2.47058821
491.49203491	2.49019599
491.49603271	2.50980401
491.50021362	2.62745094
491.50427246	2.72549009
491.50427246	2.60784316
491.50836182	2.50980401
491.51254272	2.43137264
491.51660156	2.47058821
491.51660156	2.58823538
491.52075195	2.52941179
491.52478027	2.45098042
491.52890015	2.43137264
491.53308105	2.43137264
491.53308105	2.43137264
491.53701782	2.43137264
491.54113770	2.47058821
491.54537964	2.52941179
491.54537964	2.54901958
491.54943848	2.50980401
491.55343628	2.47058821
491.55758667	2.47058821
491.56167603	2.47058821
491.56167603	2.50980401
491.56579590	2.50980401
491.56988525	2.49019599
491.57409668	2.47058821
491.57409668	2.45098042
491.57809448	2.49019599
491.58221436	2.52941179
491.58618164	2.54901958
491.59030151	2.60784316
491.59030151	2.66666675
491.59454346	2.52941179
491.59863281	2.43137264
491.60269165	2.52941179
491.60269165	2.64705873
491.60671997	2.58823538
491.61083984	2.52941179
491.61499023	2.45098042
491.61911011	2.43137264
491.61911011	2.45098042
491.62307739	2.47058821
491.62716675	2.49019599
491.63128662	2.50980401
491.63128662	2.49019599
491.63546753	2.47058821
491.63955688	2.49019599
491.64355469	2.52941179
491.64776611	2.60784316
491.65188599	2.58823538
491.65594482	2.54901958
491.65997314	2.54901958
491.65997314	2.56862736
491.66406250	2.58823538
491.66812134	2.56862736
491.67224121	2.54901958
491.67639160	2.52941179
491.68041992	2.54901958
491.68447876	2.60784316
491.68862915	2.60784316
491.68862915	2.62745094
491.69271851	2.60784316
491.69677734	2.58823538
491.70104980	2.64705873
491.70504761	2.72549009
491.70916748	2.70588231
491.71316528	2.66666675
491.71728516	2.64705873
491.71728516	2.64705873
491.72143555	2.66666675
491.72555542	2.68627453
491.72967529	2.64705873
491.72967529	2.60784316
491.73364258	2.56862736
491.73779297	2.54901958
491.74191284	2.56862736
491.74600220	2.58823538
491.74600220	2.56862736
491.75003052	2.56862736
491.75408936	2.54901958
491.75842285	2.49019599
491.75842285	2.47058821
491.76239014	2.56862736
491.76632690	2.60784316
491.77050781	2.64705873
491.77465820	2.58823538
491.77465820	2.58823538
491.77880859	2.58823538
491.78292847	2.58823538
491.78698730	2.58823538
491.78698730	2.56862736
491.79104614	2.52941179
491.79516602	2.50980401
491.79928589	2.50980401
491.80337524	2.54901958
491.80337524	2.58823538
491.80740356	2.58823538
491.81146240	2.56862736
491.81564331	2.54901958
491.81564331	2.54901958
491.81964111	2.54901958
491.82385254	2.56862736
491.82791138	2.54901958
491.83203125	2.52941179
491.83203125	2.56862736
491.83612061	2.58823538
491.84011841	2.58823538
491.84417725	2.58823538
491.84417725	2.58823538
491.84841919	2.60784316
491.85253906	2.56862736
491.85650635	2.56862736
491.86065674	2.56862736
491.86065674	2.54901958
491.86477661	2.54901958
491.86889648	2.56862736
491.87298584	2.52941179
491.87298584	2.50980401
491.87701416	2.50980401
491.88110352	2.52941179
491.88528442	2.54901958
491.88943481	2.58823538
491.89340210	2.56862736
491.89755249	2.54901958
491.90167236	2.56862736
491.90167236	2.58823538
491.90579224	2.58823538
491.90979004	2.54901958
491.91406250	2.52941179
491.91802979	2.58823538
491.92208862	2.60784316
491.92623901	2.62745094
491.93026733	2.58823538
491.93026733	2.54901958
491.93438721	2.50980401
491.93853760	2.52941179
491.94268799	2.54901958
491.94668579	2.54901958
491.95080566	2.49019599
491.95489502	2.47058821
491.95901489	2.49019599
491.95901489	2.54901958
491.96316528	2.58823538
491.96716309	2.56862736
491.97131348	2.54901958
491.97543335	2.52941179
491.97952271	2.54901958
491.98345947	2.54901958
491.98764038	2.56862736
491.98764038	2.56862736
491.99169922	2.54901958
491.99591064	2.50980401
492.00000000	2.50980401
492.00000000	2.50980401
492.00402832	2.56862736
492.00811768	2.56862736
492.01229858	2.54901958
492.01638794	2.50980401
492.01638794	2.49019599
492.02035522	2.49019599
492.02450562	2.50980401
492.02862549	2.54901958
492.02862549	2.52941179
492.03271484	2.50980401
492.03674316	2.49019599
492.04098511	2.49019599
492.04498291	2.50980401
492.04498291	2.52941179
492.04913330	2.52941179
492.05322266	2.49019599
492.05725098	2.49019599
492.05725098	2.49019599
492.06134033	2.52941179
492.06549072	2.54901958
492.06945801	2.54901958
492.07363892	2.52941179
492.07363892	2.60784316
492.07781982	2.70588231
492.08184814	2.72549009
492.08605957	2.64705873
492.08605957	2.43137264
492.09002686	2.27450991
492.09405518	2.25490189
492.09826660	2.29411769
492.10238647	2.35294127
492.10238647	2.39215684
492.10635376	2.43137264
492.11059570	2.43137264
492.11468506	2.41176462
492.11468506	2.39215684
492.11880493	2.39215684
492.12295532	2.41176462
492.12707520	2.43137264
492.13104248	2.43137264
492.13104248	2.41176462
492.13516235	2.43137264
492.13928223	2.45098042
492.14334106	2.45098042
492.14334106	2.47058821
492.14743042	2.47058821
492.15155029	2.47058821
492.15567017	2.43137264
492.15979004	2.41176462
492.15979004	2.45098042
492.16381836	2.49019599
492.16806030	2.52941179
492.17202759	2.52941179
492.17202759	2.52941179
492.17617798	2.50980401
492.18020630	2.50980401
492.18429565	2.52941179
492.18835449	2.49019599
492.19250488	2.45098042
492.19653320	2.43137264
492.20059204	2.43137264
492.20059204	2.43137264
492.20480347	2.45098042
492.20895386	2.45098042
492.21307373	2.47058821
492.21704102	2.41176462
492.22113037	2.39215684
492.22531128	2.49019599
492.22940063	2.50980401
492.22940063	2.45098042
492.23342896	2.45098042
492.23748779	2.50980401
492.24160767	2.52941179
492.24578857	2.58823538
492.24975586	2.58823538
492.25405884	2.56862736
492.25802612	2.54901958
492.25802612	2.50980401
492.26214600	2.45098042
492.26626587	2.45098042
492.27038574	2.47058821
492.27038574	2.43137264
492.27438354	2.39215684
492.27856445	2.35294127
492.28265381	2.37254906
492.28677368	2.43137264
492.28677368	2.41176462
492.29074097	2.37254906
492.29486084	2.37254906
492.29901123	2.35294127
492.29901123	2.39215684
492.30310059	2.41176462
492.30712891	2.39215684
492.31130981	2.39215684
492.31542969	2.41176462
492.31542969	2.54901958
492.31945801	2.72549009
492.32351685	2.72549009
492.32763672	2.68627453
492.32763672	2.54901958
492.33178711	2.41176462
492.33587646	2.41176462
492.34002686	2.41176462
492.34399414	2.41176462
492.34399414	2.43137264
492.34814453	2.41176462
492.35220337	2.47058821
492.35644531	2.52941179
492.35644531	2.50980401
492.36035156	2.52941179
492.36447144	2.50980401
492.36859131	2.45098042
492.37274170	2.41176462
492.37274170	2.37254906
492.37677002	2.39215684
492.38107300	2.49019599
492.38504028	2.47058821
492.38504028	2.50980401
492.38916016	2.47058821
492.39315796	2.43137264
492.39724731	2.54901958
492.40133667	2.64705873
492.40133667	2.62745094
492.40554810	2.56862736
492.40966797	2.43137264
492.41384888	2.41176462
492.41384888	2.47058821
492.41784668	2.58823538
492.42199707	2.64705873
492.42605591	2.70588231
492.43017578	2.56862736
492.43017578	2.47058821
492.43414307	2.33333325
492.43826294	2.33333325
492.44235229	2.41176462
492.44235229	2.43137264
492.44653320	2.43137264
492.45053101	2.35294127
492.45468140	2.27450991
492.45880127	2.45098042
492.46292114	2.56862736
492.46707153	2.58823538
492.47103882	2.58823538
492.47103882	2.58823538
492.47515869	2.50980401
492.47927856	2.52941179
492.48339844	2.52941179
492.48733521	2.47058821
492.49151611	2.41176462
492.49560547	2.35294127
492.49990845	2.43137264
492.49990845	2.50980401
492.50381470	2.62745094
492.50799561	2.70588231
492.51205444	2.62745094
492.51614380	2.43137264
492.52011108	2.35294127
492.52423096	2.33333325
492.52841187	2.31372547
492.52841187	2.33333325
492.53256226	2.37254906
492.53668213	2.37254906
492.54058838	2.35294127
492.54058838	2.43137264
492.54476929	2.47058821
492.54885864	2.45098042
492.55300903	2.43137264
492.55709839	2.35294127
492.55709839	2.35294127
492.56115723	2.41176462
492.56524658	2.43137264
492.56936646	2.45098042
492.56936646	2.50980401
492.57339478	2.50980401
492.57748413	2.47058821
492.58157349	2.49019599
492.58578491	2.50980401
492.58578491	2.52941179
492.58990479	2.50980401
492.59399414	2.50980401
492.59799194	2.54901958
492.59799194	2.62745094
492.60214233	2.64705873
492.60632324	2.62745094
492.61016846	2.47058821
492.61434937	2.35294127
492.61434937	2.33333325
492.61843872	2.39215684
492.62265015	2.41176462
492.62680054	2.47058821
492.62680054	2.47058821
492.63079834	2.45098042
492.63491821	2.39215684
492.63903809	2.39215684
492.64315796	2.39215684
492.64315796	2.43137264
492.64715576	2.47058821
492.65127563	2.50980401
492.65542603	2.45098042
492.65542603	2.39215684
492.65954590	2.43137264
492.66351318	2.49019599
492.66760254	2.49019599
492.67172241	2.45098042
492.67172241	2.45098042
492.67590332	2.45098042
492.67999268	2.47058821
492.68402100	2.50980401
492.68402100	2.54901958
492.68814087	2.49019599
492.69229126	2.43137264
492.69641113	2.39215684
492.70053101	2.37254906
492.70053101	2.41176462
492.70449829	2.41176462
492.70864868	2.45098042
492.71276855	2.47058821
492.71276855	2.49019599
492.71679688	2.47058821
492.72103882	2.45098042
492.72503662	2.49019599
492.72912598	2.47058821
492.73324585	2.45098042
492.73721313	2.47058821
492.74136353	2.58823538
492.74136353	2.62745094
492.74551392	2.60784316
492.74960327	2.49019599
492.75360107	2.39215684
492.75778198	2.50980401
492.76190186	2.54901958
492.76605225	2.49019599
492.77017212	2.35294127
492.77017212	2.31372547
492.77413940	2.29411769
492.77828979	2.29411769
492.78240967	2.33333325
492.78652954	2.47058821
492.79052734	2.47058821
492.79464722	2.43137264
492.79870605	2.43137264
492.79870605	2.49019599
492.80288696	2.52941179
492.80694580	2.50980401
492.81100464	2.47058821
492.81518555	2.45098042
492.81927490	2.50980401
492.82336426	2.54901958
492.82742310	2.49019599
492.82742310	2.50980401
492.83154297	2.47058821
492.83566284	2.47058821
492.83978271	2.52941179
492.83978271	2.64705873
492.84378052	2.62745094
492.84799194	2.58823538
492.85198975	2.54901958
492.85614014	2.56862736
492.85614014	2.56862736
492.86010742	2.56862736
492.86419678	2.56862736
492.86837769	2.54901958
492.86837769	2.49019599
492.87249756	2.47058821
492.87664795	2.49019599
492.88067627	2.52941179
492.88476563	2.58823538
492.88476563	2.60784316
492.88891602	2.58823538
492.89303589	2.54901958
492.89715576	2.50980401
492.89715576	2.49019599
492.90115356	2.50980401
492.90527344	2.58823538
492.90936279	2.60784316
492.91354370	2.58823538
492.91354370	2.49019599
492.91757202	2.41176462
492.92172241	2.47058821
492.92578125	2.56862736
492.92578125	2.60784316
492.92990112	2.56862736
492.93402100	2.50980401
492.93811035	2.50980401
492.94213867	2.50980401
492.94213867	2.52941179
492.94628906	2.54901958
492.95025635	2.56862736
492.95440674	2.52941179
492.95440674	2.52941179
492.95852661	2.54901958
492.96267700	2.58823538
492.96676636	2.56862736
492.97076416	2.56862736
492.97076416	2.60784316
492.97488403	2.54901958
492.97903442	2.50980401
492.98315430	2.50980401
492.98315430	2.52941179
492.98709106	2.54901958
492.99124146	2.54901958
492.99536133	2.47058821
492.99951172	2.47058821
493.00354004	2.50980401
493.00762939	2.49019599
493.01184082	2.45098042
493.01184082	2.41176462
493.01589966	2.35294127
493.02005005	2.41176462
493.02401733	2.43137264
493.02813721	2.54901958
493.03222656	2.52941179
493.03640747	2.49019599
493.04049683	2.49019599
493.04049683	2.52941179
493.04449463	2.56862736
493.04864502	2.54901958
493.05267334	2.52941179
493.05685425	2.45098042
493.06100464	2.49019599
493.06500244	2.50980401
493.06915283	2.52941179
493.06915283	2.49019599
493.07324219	2.45098042
493.07730103	2.45098042
493.08139038	2.47058821
493.08139038	2.49019599
493.08551025	2.47058821
493.08963013	2.49019599
493.09362793	2.49019599
493.09777832	2.50980401
493.09777832	2.52941179
493.10202026	2.54901958
493.10598755	2.52941179
493.11013794	2.52941179
493.11013794	2.52941179
493.11413574	2.54901958
493.11822510	2.50980401
493.12228394	2.50980401
493.12649536	2.49019599
493.12649536	2.54901958
493.13055420	2.50980401
493.13461304	2.47058821
493.13876343	2.47058821
493.13876343	2.47058821
493.14291382	2.49019599
493.14706421	2.54901958
493.15100098	2.54901958
493.15515137	2.50980401
493.15515137	2.47058821
493.15933228	2.52941179
493.16348267	2.54901958
493.16744995	2.50980401
493.16744995	2.49019599
493.17156982	2.52941179
493.17572021	2.45098042
493.17980957	2.43137264
493.18389893	2.54901958
493.18389893	2.52941179
493.18795776	2.50980401
493.19198608	2.54901958
493.19613647	2.56862736
493.19613647	2.52941179
493.20022583	2.47058821
493.20425415	2.52941179
493.20840454	2.50980401
493.21255493	2.49019599
493.21255493	2.50980401
493.21661377	2.49019599
493.22064209	2.45098042
493.22476196	2.43137264
493.22476196	2.47058821
493.22888184	2.49019599
493.23300171	2.45098042
493.23699951	2.45098042
493.24108887	2.45098042
493.24108887	2.41176462
493.24526978	2.39215684
493.24932861	2.49019599
493.25350952	2.49019599
493.25350952	2.49019599
493.25750732	2.56862736
493.26168823	2.54901958
493.26577759	2.52941179
493.26989746	2.56862736
493.27401733	2.58823538
493.27813721	2.54901958
493.28216553	2.52941179
493.28216553	2.49019599
493.28628540	2.43137264
493.29025269	2.47058821
493.29434204	2.50980401
493.29864502	2.50980401
493.30261230	2.50980401
493.30673218	2.47058821
493.31085205	2.43137264
493.31085205	2.45098042
493.31506348	2.43137264
493.31896973	2.45098042
493.32312012	2.49019599
493.32714844	2.45098042
493.33132935	2.49019599
493.33535767	2.47058821
493.33953857	2.49019599
493.33953857	2.56862736
493.34353638	2.58823538
493.34768677	2.58823538
493.35177612	2.54901958
493.35580444	2.52941179
493.36013794	2.54901958
493.36398315	2.56862736
493.36813354	2.56862736
493.36813354	2.60784316
493.37225342	2.60784316
493.37643433	2.45098042
493.38049316	2.33333325
493.38049316	2.52941179
493.38452148	2.62745094
493.38864136	2.64705873
493.39279175	2.62745094
493.39685059	2.56862736
493.39685059	2.58823538
493.40103149	2.64705873
493.40502930	2.58823538
493.40917969	2.54901958
493.40917969	2.54901958
493.41329956	2.49019599
493.41726685	2.45098042
493.42138672	2.49019599
493.42544556	2.50980401
493.42544556	2.54901958
493.42962646	2.52941179
493.43368530	2.50980401
493.43780518	2.49019599
493.43780518	2.50980401
493.44189453	2.60784316
493.44601440	2.58823538
493.45016479	2.58823538
493.45416260	2.52941179
493.45416260	2.52941179
493.45828247	2.56862736
493.46240234	2.52941179
493.46652222	2.52941179
493.46652222	2.50980401
493.47052002	2.45098042
493.47463989	2.43137264
493.47875977	2.45098042
493.48284912	2.50980401
493.48284912	2.49019599
493.48696899	2.52941179
493.49093628	2.49019599
493.49511719	2.43137264
493.49511719	2.47058821
493.49920654	2.50980401
493.50335693	2.50980401
493.50738525	2.56862736
493.51156616	2.49019599
493.51156616	2.50980401
493.51565552	2.49019599
493.51977539	2.45098042
493.52389526	2.54901958
493.52389526	2.56862736
493.52798462	2.58823538
493.53204346	2.56862736
493.53613281	2.52941179
493.54025269	2.52941179
493.54421997	2.54901958
493.54843140	2.50980401
493.55249023	2.54901958
493.55249023	2.56862736
493.55657959	2.50980401
493.56066895	2.47058821
493.56475830	2.56862736
493.56903076	2.58823538
493.57302856	2.58823538
493.57714844	2.52941179
493.58114624	2.56862736
493.58114624	2.60784316
493.58526611	2.66666675
493.58932495	2.64705873
493.59353638	2.58823538
493.59753418	2.50980401
493.60162354	2.50980401
493.60583496	2.56862736
493.61001587	2.54901958
493.61001587	2.45098042
493.61407471	2.50980401
493.61804199	2.58823538
493.62210083	2.62745094
493.62628174	2.49019599
493.63043213	2.54901958
493.63439941	2.54901958
493.63845825	2.56862736
493.63845825	2.60784316
493.64266968	2.64705873
493.64678955	2.62745094
493.65090942	2.60784316
493.65090942	2.56862736
493.65505981	2.52941179
493.65902710	2.54901958
493.66314697	2.60784316
493.66723633	2.66666675
493.66723633	2.64705873
493.67126465	2.60784316
493.67532349	2.54901958
493.67950439	2.49019599
493.67950439	2.47058821
493.68359375	2.49019599
493.68762207	2.56862736
493.69171143	2.60784316
493.69592285	2.56862736
493.69592285	2.56862736
493.70001221	2.54901958
493.70401001	2.50980401
493.70812988	2.47058821
493.70812988	2.52941179
493.71224976	2.56862736
493.71630859	2.50980401
493.72052002	2.50980401
493.72451782	2.64705873
493.72451782	2.70588231
493.72860718	2.66666675
493.73272705	2.58823538
493.73681641	2.56862736
493.73681641	2.60784316
493.74099731	2.60784316
493.74496460	2.58823538
493.74911499	2.58823538
493.75326538	2.58823538
493.75326538	2.52941179
493.75726318	2.47058821
493.76138306	2.43137264
493.76553345	2.41176462
493.76553345	2.49019599
493.76965332	2.49019599
493.77377319	2.45098042
493.77770996	2.47058821
493.78210449	2.49019599
493.78210449	2.52941179
493.78601074	2.47058821
493.79016113	2.41176462
493.79431152	2.50980401
493.79431152	2.52941179
493.79827881	2.54901958
493.80239868	2.54901958
493.80648804	2.58823538
493.81060791	2.50980401
493.81469727	2.43137264
493.81869507	2.37254906
493.82287598	2.47058821
493.82287598	2.60784316
493.82699585	2.62745094
493.83102417	2.54901958
493.83514404	2.50980401
493.83923340	2.52941179
493.84338379	2.52941179
493.84738159	2.49019599
493.85147095	2.49019599
493.85147095	2.47058821
493.85565186	2.49019599
493.85974121	2.47058821
493.86386108	2.50980401
493.86795044	2.49019599
493.87197876	2.50980401
493.87612915	2.50980401
493.88031006	2.52941179
493.88031006	2.56862736
493.88424683	2.56862736
493.88839722	2.66666675
493.89251709	2.64705873
493.89251709	2.54901958
493.89663696	2.45098042
493.90060425	2.47058821
493.90475464	2.52941179
493.90902710	2.49019599
493.90902710	2.54901958
493.91308594	2.52941179
493.91720581	2.49019599
493.92120361	2.47058821
493.92120361	2.54901958
493.92532349	2.60784316
493.92941284	2.60784316
493.93353271	2.60784316
493.93771362	2.56862736
493.93771362	2.54901958
493.94165039	2.56862736
493.94580078	2.58823538
493.94989014	2.60784316
493.94989014	2.56862736
493.95410156	2.54901958
493.95806885	2.49019599
493.96221924	2.50980401
493.96630859	2.54901958
493.96630859	2.56862736
493.97045898	2.58823538
493.97442627	2.58823538
493.97857666	2.50980401
493.97857666	2.45098042
493.98269653	2.47058821
493.98681641	2.49019599
493.99078369	2.50980401
493.99502563	2.43137264
493.99502563	2.39215684
493.99905396	2.47058821
494.00317383	2.58823538
494.00726318	2.58823538
494.00726318	2.56862736
494.01129150	2.54901958
494.01544189	2.50980401
494.01956177	2.49019599
494.02365112	2.49019599
494.02365112	2.49019599
494.02764893	2.49019599
494.03182983	2.45098042
494.03594971	2.43137264
494.03594971	2.45098042
494.04006958	2.47058821
494.04403687	2.45098042
494.04818726	2.45098042
494.05230713	2.41176462
494.05230713	2.33333325
494.05639648	2.29411769
494.06057739	2.33333325
494.06454468	2.41176462
494.06454468	2.47058821
494.06863403	2.47058821
494.07272339	2.47058821
494.07693481	2.49019599
494.08120728	2.49019599
494.08502197	2.56862736
494.08911133	2.54901958
494.09323120	2.52941179
494.09323120	2.49019599
494.09722900	2.45098042
494.10134888	2.41176462
494.10549927	2.41176462
494.10958862	2.49019599
494.11370850	2.49019599
494.11773682	2.45098042
494.12203979	2.49019599
494.12203979	2.50980401
494.12597656	2.52941179
494.13015747	2.52941179
494.13424683	2.50980401
494.13827515	2.56862736
494.14236450	2.56862736
494.14651489	2.52941179
494.15063477	2.52941179
494.15063477	2.50980401
494.15466309	2.43137264
494.15875244	2.45098042
494.16287231	2.50980401
494.16696167	2.47058821
494.17098999	2.43137264
494.17507935	2.41176462
494.17922974	2.43137264
494.17922974	2.43137264
494.18338013	2.47058821
494.18737793	2.50980401
494.19149780	2.50980401
494.19149780	2.47058821
494.19564819	2.43137264
494.19976807	2.43137264
494.20388794	2.43137264
494.20803833	2.47058821
494.20803833	2.49019599
494.21203613	2.41176462
494.21615601	2.39215684
494.22027588	2.39215684
494.22027588	2.43137264
494.22427368	2.45098042
494.22833252	2.45098042
494.23248291	2.43137264
494.23654175	2.45098042
494.23654175	2.45098042
494.24063110	2.49019599
494.24481201	2.56862736
494.24896240	2.58823538
494.24896240	2.56862736
494.25302124	2.50980401
494.25714111	2.45098042
494.26107788	2.47058821
494.26525879	2.49019599
494.26525879	2.47058821
494.26937866	2.49019599
494.27352905	2.52941179
494.27758789	2.54901958
494.27758789	2.56862736
494.28161621	2.56862736
494.28576660	2.54901958
494.28985596	2.52941179
494.29400635	2.45098042
494.29400635	2.31372547
494.29800415	2.31372547
494.30218506	2.37254906
494.30633545	2.50980401
494.30633545	2.56862736
494.31045532	2.58823538
494.31445313	2.64705873
494.31854248	2.66666675
494.32269287	2.66666675
494.32269287	2.66666675
494.32678223	2.62745094
494.33078003	2.56862736
494.33499146	2.52941179
494.33499146	2.60784316
494.33905029	2.58823538
494.34313965	2.58823538
494.34725952	2.58823538
494.35125732	2.52941179
494.35540771	2.50980401
494.35952759	2.50980401
494.36355591	2.49019599
494.36355591	2.54901958
494.36758423	2.64705873
494.37170410	2.70588231
494.37588501	2.66666675
494.38006592	2.60784316
494.38403320	2.60784316
494.38812256	2.66666675
494.39224243	2.66666675
494.39224243	2.56862736
494.39639282	2.56862736
494.40054321	2.62745094
494.40454102	2.64705873
494.40863037	2.66666675
494.41278076	2.60784316
494.41687012	2.64705873
494.42102051	2.66666675
494.42102051	2.62745094
494.42495728	2.58823538
494.42913818	2.60784316
494.43319702	2.54901958
494.43737793	2.49019599
494.44137573	2.47058821
494.44555664	2.45098042
494.44964600	2.43137264
494.44964600	2.39215684
494.45376587	2.29411769
494.45776367	2.19607854
494.46200562	2.27450991
494.46200562	2.52941179
494.46600342	2.56862736
494.47015381	2.58823538
494.47427368	2.52941179
494.47830200	2.45098042
494.47830200	2.41176462
494.48245239	2.41176462
494.48654175	2.33333325
494.49063110	2.27450991
494.49063110	2.35294127
494.49462891	2.45098042
494.49890137	2.45098042
494.50292969	2.47058821
494.50701904	2.58823538
494.50701904	2.60784316
494.51098633	2.56862736
494.51510620	2.47058821
494.51925659	2.39215684
494.51925659	2.35294127
494.52340698	2.35294127
494.52734375	2.39215684
494.53152466	2.41176462
494.53561401	2.45098042
494.53561401	2.41176462
494.53973389	2.43137264
494.54385376	2.45098042
494.54794312	2.45098042
494.54794312	2.41176462
494.55197144	2.33333325
494.55609131	2.27450991
494.56033325	2.27450991
494.56436157	2.35294127
494.56436157	2.37254906
494.56835938	2.35294127
494.57241821	2.31372547
494.57659912	2.29411769
494.57659912	2.31372547
494.58071899	2.35294127
494.58471680	2.35294127
494.58901978	2.37254906
494.59298706	2.31372547
494.59298706	2.23529410
494.59710693	2.21568632
494.60110474	2.17647052
494.60528564	2.19607854
494.60528564	2.27450991
494.60934448	2.35294127
494.61340332	2.39215684
494.61761475	2.35294127
494.62176514	2.39215684
494.62579346	2.43137264
494.62991333	2.43137264
494.63397217	2.37254906
494.63397217	2.31372547
494.63800049	2.25490189
494.64212036	2.25490189
494.64627075	2.23529410
494.65039063	2.31372547
494.65438843	2.29411769
494.65853882	2.27450991
494.66268921	2.27450991
494.66268921	2.27450991
494.66677856	2.31372547
494.67083740	2.27450991
494.67501831	2.15686274
494.67901611	2.17647052
494.68313599	2.27450991
494.68731689	2.33333325
494.69140625	2.31372547
494.69140625	2.23529410
494.69537354	2.13725495
494.69946289	2.13725495
494.70361328	2.19607854
494.70782471	2.33333325
494.71182251	2.31372547
494.71594238	2.31372547
494.72006226	2.29411769
494.72006226	2.35294127
494.72418213	2.37254906
494.72814941	2.37254906
494.73233032	2.37254906
494.73233032	2.37254906
494.73641968	2.37254906
494.74050903	2.43137264
494.74450684	2.49019599
494.74868774	2.50980401
494.74868774	2.50980401
494.75277710	2.45098042
494.75689697	2.41176462
494.76101685	2.41176462
494.76101685	2.47058821
494.76507568	2.50980401
494.76919556	2.52941179
494.77331543	2.52941179
494.77740479	2.47058821
494.77740479	2.43137264
494.78143311	2.45098042
494.78558350	2.45098042
494.78967285	2.43137264
494.78967285	2.37254906
494.79409790	2.35294127
494.79782104	2.27450991
494.80206299	2.29411769
494.80606079	2.27450991
494.80606079	2.23529410
494.81008911	2.29411769
494.81423950	2.29411769
494.81817627	2.25490189
494.81817627	2.25490189
494.82235718	2.25490189
494.82653809	2.25490189
494.83062744	2.27450991
494.83474731	2.27450991
494.83474731	2.23529410
494.83877563	2.23529410
494.84283447	2.29411769
494.84704590	2.39215684
494.84704590	2.39215684
494.85101318	2.35294127
494.85510254	2.29411769
494.85925293	2.21568632
494.86331177	2.23529410
494.86331177	2.39215684
494.86746216	2.43137264
494.87149048	2.45098042
494.87561035	2.43137264
494.87561035	2.43137264
494.87979126	2.45098042
494.88391113	2.50980401
494.88803101	2.54901958
494.89205933	2.52941179
494.89205933	2.43137264
494.89608765	2.39215684
494.90020752	2.41176462
494.90438843	2.47058821
494.90438843	2.50980401
494.90838623	2.50980401
494.91247559	2.45098042
494.91662598	2.49019599
494.92071533	2.49019599
494.92468262	2.45098042
494.92898560	2.50980401
494.93295288	2.52941179
494.93295288	2.49019599
494.93710327	2.43137264
494.94113159	2.47058821
494.94528198	2.54901958
494.94937134	2.58823538
494.95352173	2.47058821
494.95751953	2.45098042
494.96160889	2.50980401
494.96160889	2.58823538
494.96578979	2.60784316
494.96990967	2.54901958
494.97402954	2.52941179
494.97799683	2.49019599
494.98211670	2.45098042
494.98620605	2.47058821
494.99032593	2.54901958
494.99032593	2.52941179
494.99432373	2.47058821
494.99850464	2.43137264
495.00262451	2.41176462
495.00262451	2.41176462
495.00674438	2.45098042
495.01083374	2.39215684
495.01504517	2.25490189
495.01901245	2.17647052
495.01901245	2.19607854
495.02310181	2.29411769
495.02731323	2.37254906
495.03140259	2.37254906
495.03140259	2.31372547
495.03536987	2.23529410
495.03964233	2.25490189
495.04360962	2.31372547
495.04779053	2.39215684
495.04779053	2.43137264
495.05169678	2.39215684
495.05581665	2.33333325
495.06002808	2.31372547
495.06002808	2.33333325
495.06408691	2.39215684
495.06814575	2.41176462
495.07223511	2.45098042
495.07644653	2.39215684
495.07644653	2.35294127
495.08047485	2.47058821
495.08450317	2.52941179
495.08862305	2.52941179
495.08862305	2.47058821
495.09277344	2.47058821
495.09683228	2.45098042
495.10101318	2.39215684
495.10510254	2.41176462
495.10510254	2.45098042
495.10913086	2.43137264
495.11318970	2.49019599
495.11730957	2.56862736
495.11730957	2.58823538
495.12133789	2.66666675
495.12542725	2.64705873
495.12966919	2.64705873
495.13375854	2.60784316
495.13375854	2.45098042
495.13775635	2.35294127
495.14202881	2.47058821
495.14602661	2.56862736
495.14602661	2.54901958
495.15014648	2.45098042
495.15423584	2.43137264
495.15820313	2.45098042
495.16235352	2.45098042
495.16235352	2.47058821
495.16647339	2.50980401
495.17059326	2.50980401
495.17471313	2.43137264
495.17471313	2.39215684
495.17868042	2.39215684
495.18280029	2.41176462
495.18692017	2.39215684
495.19110107	2.41176462
495.19515991	2.37254906
495.19924927	2.41176462
495.20339966	2.45098042
495.20339966	2.43137264
495.20751953	2.45098042
495.21148682	2.37254906
495.21563721	2.31372547
495.21975708	2.35294127
495.22387695	2.43137264
495.22799683	2.45098042
495.23196411	2.37254906
495.23196411	2.35294127
495.23611450	2.41176462
495.24017334	2.47058821
495.24435425	2.54901958
495.24832153	2.52941179
495.25253296	2.43137264
495.25662231	2.33333325
495.26071167	2.37254906
495.26071167	2.45098042
495.26477051	2.52941179
495.26901245	2.50980401
495.27301025	2.41176462
495.27301025	2.35294127
495.27706909	2.43137264
495.28112793	2.45098042
495.28521729	2.45098042
495.28939819	2.43137264
495.28939819	2.45098042
495.29351807	2.41176462
495.29757690	2.37254906
495.30160522	2.43137264
495.30160522	2.52941179
495.30572510	2.54901958
495.30981445	2.50980401
495.31411743	2.54901958
495.31811523	2.50980401
495.31811523	2.47058821
495.32214355	2.50980401
495.32623291	2.60784316
495.33038330	2.58823538
495.33038330	2.56862736
495.33447266	2.50980401
495.33843994	2.45098042
495.34259033	2.41176462
495.34674072	2.39215684
495.34674072	2.41176462
495.35086060	2.45098042
495.35501099	2.47058821
495.35894775	2.50980401
495.35894775	2.50980401
495.36309814	2.50980401
495.36727905	2.49019599
495.37118530	2.41176462
495.37533569	2.31372547
495.37533569	2.31372547
495.37951660	2.33333325
495.38369751	2.49019599
495.38781738	2.58823538
495.38781738	2.60784316
495.39178467	2.56862736
495.39605713	2.52941179
495.40005493	2.49019599
495.40420532	2.50980401
495.40420532	2.52941179
495.40814209	2.52941179
495.41229248	2.45098042
495.41641235	2.43137264
495.41641235	2.43137264
495.42050171	2.43137264
495.42453003	2.47058821
495.42864990	2.41176462
495.43283081	2.23529410
495.43685913	2.29411769
495.44097900	2.33333325
495.44497681	2.35294127
495.44497681	2.39215684
495.44909668	2.45098042
495.45318604	2.39215684
495.45730591	2.33333325
495.46151733	2.23529410
495.46548462	2.29411769
495.46957397	2.35294127
495.47372437	2.29411769
495.47372437	2.19607854
495.47781372	2.19607854
495.48202515	2.21568632
495.48593140	2.31372547
495.49005127	2.37254906
495.49417114	2.35294127
495.49816895	2.35294127
495.50231934	2.33333325
495.50231934	2.37254906
495.50646973	2.41176462
495.51058960	2.39215684
495.51473999	2.25490189
495.51870728	2.29411769
495.52282715	2.35294127
495.52691650	2.35294127
495.53115845	2.39215684
495.53115845	2.33333325
495.53512573	2.27450991
495.53921509	2.25490189
495.54336548	2.31372547
495.54336548	2.35294127
495.54748535	2.35294127
495.55148315	2.39215684
495.55554199	2.47058821
495.55969238	2.47058821
495.55969238	2.54901958
495.56384277	2.64705873
495.56799316	2.72549009
495.57199097	2.70588231
495.57199097	2.52941179
495.57611084	2.49019599
495.58026123	2.60784316
495.58435059	2.70588231
495.58837891	2.70588231
495.58837891	2.68627453
495.59249878	2.60784316
495.59661865	2.56862736
495.60076904	2.54901958
495.60076904	2.54901958
495.60476685	2.45098042
495.60900879	2.43137264
495.61300659	2.49019599
495.61706543	2.50980401
495.61706543	2.47058821
495.62118530	2.41176462
495.62521362	2.37254906
495.62933350	2.49019599
495.62933350	2.45098042
495.63348389	2.39215684
495.63763428	2.35294127
495.64160156	2.35294127
495.64578247	2.39215684
495.64578247	2.37254906
495.64984131	2.35294127
495.65399170	2.39215684
495.65811157	2.37254906
495.65811157	2.41176462
495.66213989	2.47058821
495.66619873	2.49019599
495.67031860	2.47058821
495.67446899	2.41176462
495.67446899	2.39215684
495.67852783	2.37254906
495.68258667	2.43137264
495.68679810	2.50980401
495.68679810	2.50980401
495.69085693	2.45098042
495.69497681	2.35294127
495.69891357	2.29411769
495.70309448	2.29411769
495.70721436	2.33333325
495.71133423	2.43137264
495.71536255	2.47058821
495.71536255	2.47058821
495.71951294	2.45098042
495.72363281	2.39215684
495.72769165	2.39215684
495.73175049	2.45098042
495.73599243	2.43137264
495.73995972	2.45098042
495.74401855	2.49019599
495.74401855	2.50980401
495.74807739	2.49019599
495.75216675	2.45098042
495.75634766	2.41176462
495.76049805	2.33333325
495.76464844	2.35294127
495.76855469	2.43137264
495.77273560	2.39215684
495.77273560	2.35294127
495.77688599	2.35294127
495.78100586	2.35294127
495.78500366	2.41176462
495.78909302	2.43137264
495.79321289	2.33333325
495.79739380	2.31372547
495.80154419	2.33333325
495.80154419	2.49019599
495.80554199	2.64705873
495.80966187	2.68627453
495.81378174	2.64705873
495.81378174	2.58823538
495.81796265	2.54901958
495.82199097	2.56862736
495.82601929	2.58823538
495.83007813	2.58823538
495.83007813	2.60784316
495.83422852	2.60784316
495.83825684	2.56862736
495.84237671	2.58823538
495.84237671	2.58823538
495.84652710	2.58823538
495.85064697	2.58823538
495.85464478	2.52941179
495.85876465	2.49019599
495.85876465	2.45098042
495.86288452	2.45098042
495.86697388	2.45098042
495.87109375	2.43137264
495.87109375	2.35294127
495.87506104	2.27450991
495.87924194	2.33333325
495.88330078	2.39215684
495.88751221	2.47058821
495.88751221	2.49019599
495.89147949	2.43137264
495.89562988	2.35294127
495.89971924	2.33333325
495.89971924	2.37254906
495.90386963	2.39215684
495.90798950	2.41176462
495.91198730	2.41176462
495.91610718	2.35294127
495.91610718	2.31372547
495.92022705	2.35294127
495.92434692	2.37254906
495.92849731	2.39215684
495.92849731	2.47058821
495.93249512	2.43137264
495.93655396	2.33333325
495.94067383	2.33333325
495.94482422	2.45098042
495.94482422	2.47058821
495.94897461	2.43137264
495.95297241	2.29411769
495.95709229	2.29411769
495.95709229	2.37254906
495.96121216	2.47058821
495.96524048	2.50980401
495.96936035	2.49019599
495.97348022	2.52941179
495.97348022	2.50980401
495.97756958	2.47058821
495.98162842	2.45098042
495.98571777	2.50980401
495.98571777	2.50980401
495.98986816	2.49019599
495.99404907	2.47058821
495.99816895	2.47058821
496.00210571	2.49019599
496.00625610	2.45098042
496.01037598	2.49019599
496.01446533	2.47058821
496.01446533	2.43137264
496.01849365	2.47058821
496.02258301	2.52941179
496.02673340	2.52941179
496.03091431	2.50980401
496.03503418	2.54901958
496.03897095	2.60784316
496.04312134	2.72549009
496.04312134	2.76470590
496.04724121	2.64705873
496.05136108	2.45098042
496.05541992	2.37254906
496.05947876	2.39215684
496.06356812	2.41176462
496.06771851	2.39215684
496.07177734	2.35294127
496.07177734	2.39215684
496.07598877	2.39215684
496.08004761	2.39215684
496.08413696	2.43137264
496.08413696	2.49019599
496.08813477	2.45098042
496.09222412	2.37254906
496.09637451	2.37254906
496.10049438	2.41176462
496.10049438	2.37254906
496.10464478	2.39215684
496.10858154	2.49019599
496.11267090	2.49019599
496.11267090	2.41176462
496.11688232	2.33333325
496.12094116	2.27450991
496.12496948	2.27450991
496.12911987	2.35294127
496.12911987	2.41176462
496.13323975	2.33333325
496.13735962	2.25490189
496.14151001	2.29411769
496.14151001	2.35294127
496.14547729	2.37254906
496.14962769	2.33333325
496.15374756	2.37254906
496.15786743	2.33333325
496.15786743	2.31372547
496.16198730	2.33333325
496.16595459	2.39215684
496.17016602	2.41176462
496.17016602	2.39215684
496.17422485	2.37254906
496.17822266	2.45098042
496.18237305	2.49019599
496.18646240	2.52941179
496.18646240	2.52941179
496.19055176	2.50980401
496.19476318	2.50980401
496.19876099	2.49019599
496.19876099	2.47058821
496.20300293	2.47058821
496.20700073	2.47058821
496.21105957	2.47058821
496.21524048	2.49019599
496.21524048	2.50980401
496.21920776	2.47058821
496.22335815	2.49019599
496.22741699	2.52941179
496.22741699	2.56862736
496.23147583	2.54901958
496.23553467	2.49019599
