691.10961914	2.31372547
691.11370850	2.37254906
691.11779785	2.58823538
691.12182617	2.58823538
691.12603760	2.52941179
691.13006592	2.47058821
691.13006592	2.49019599
691.13427734	2.62745094
691.13830566	2.72549009
691.14233398	2.74509811
691.14660645	2.54901958
691.15063477	2.50980401
691.15472412	2.58823538
691.15881348	2.66666675
691.15881348	2.70588231
691.16284180	2.60784316
691.16699219	2.49019599
691.17114258	2.41176462
691.17529297	2.54901958
691.17919922	2.62745094
691.18334961	2.56862736
691.18756104	2.45098042
691.18756104	2.37254906
691.19158936	2.39215684
691.19555664	2.45098042
691.19970703	2.50980401
691.20385742	2.41176462
691.20800781	2.31372547
691.21203613	2.29411769
691.21606445	2.39215684
691.21606445	2.49019599
691.22027588	2.52941179
691.22436523	2.45098042
691.22851563	2.33333325
691.22851563	2.31372547
691.23260498	2.37254906
691.23663330	2.47058821
691.24078369	2.50980401
691.24487305	2.45098042
691.24487305	2.33333325
691.24890137	2.23529410
691.25311279	2.25490189
691.25714111	2.35294127
691.25714111	2.43137264
691.26116943	2.39215684
691.26519775	2.27450991
691.26934814	2.17647052
691.27355957	2.17647052
691.27355957	2.25490189
691.27764893	2.33333325
691.28161621	2.33333325
691.28576660	2.21568632
691.28576660	2.11764717
691.28985596	2.07843137
691.29400635	2.15686274
691.29815674	2.25490189
691.30224609	2.31372547
691.30224609	2.27450991
691.30621338	2.19607854
691.31030273	2.15686274
691.31445313	2.25490189
691.31445313	2.43137264
691.31854248	2.54901958
691.32257080	2.56862736
691.32672119	2.49019599
691.33087158	2.43137264
691.33087158	2.49019599
691.33502197	2.62745094
691.33898926	2.74509811
691.34313965	2.76470590
691.34313965	2.64705873
691.34722900	2.54901958
691.35137939	2.52941179
691.35540771	2.60784316
691.35961914	2.70588231
691.35961914	2.70588231
691.36364746	2.58823538
691.36773682	2.45098042
691.37188721	2.35294127
691.37188721	2.39215684
691.37585449	2.45098042
691.37994385	2.49019599
691.38409424	2.41176462
691.38818359	2.21568632
691.39227295	2.27450991
691.39636230	2.41176462
691.40045166	2.52941179
691.40045166	2.54901958
691.40466309	2.47058821
691.40856934	2.41176462
691.41271973	2.45098042
691.41687012	2.72549009
691.42095947	2.76470590
691.42504883	2.68627453
691.42907715	2.60784316
691.42907715	2.56862736
691.43322754	2.66666675
691.43737793	2.80392146
691.44146729	2.86274505
691.44555664	2.68627453
691.44958496	2.60784316
691.45367432	2.64705873
691.45794678	2.74509811
691.45794678	2.82352948
691.46191406	2.76470590
691.46600342	2.62745094
691.47009277	2.52941179
691.47009277	2.52941179
691.47424316	2.64705873
691.47839355	2.74509811
691.48236084	2.74509811
691.48663330	2.66666675
691.48663330	2.56862736
691.49066162	2.56862736
691.49475098	2.66666675
691.49884033	2.76470590
691.49884033	2.82352948
691.50292969	2.70588231
691.50695801	2.56862736
691.51104736	2.50980401
691.51519775	2.52941179
691.51519775	2.60784316
691.51916504	2.64705873
691.52343750	2.54901958
691.52752686	2.39215684
691.52752686	2.25490189
691.53161621	2.29411769
691.53564453	2.41176462
691.53973389	2.50980401
691.54388428	2.50980401
691.54388428	2.41176462
691.54797363	2.37254906
691.55200195	2.43137264
691.55603027	2.58823538
691.55603027	2.70588231
691.56024170	2.78431368
691.56433105	2.70588231
691.56854248	2.60784316
691.57263184	2.52941179
691.57263184	2.58823538
691.57659912	2.66666675
691.58081055	2.70588231
691.58489990	2.56862736
691.58489990	2.41176462
691.58886719	2.29411769
691.59301758	2.33333325
691.59710693	2.41176462
691.60125732	2.49019599
691.60125732	2.47058821
691.60540771	2.37254906
691.60943604	2.27450991
691.61364746	2.29411769
691.61364746	2.43137264
691.61761475	2.50980401
691.62176514	2.52941179
691.62567139	2.41176462
691.62988281	2.29411769
691.62988281	2.27450991
691.63391113	2.37254906
691.63812256	2.49019599
691.64221191	2.54901958
691.64221191	2.47058821
691.64624023	2.39215684
691.65032959	2.33333325
691.65447998	2.43137264
691.65856934	2.66666675
691.66259766	2.62745094
691.66668701	2.49019599
691.67083740	2.43137264
691.67083740	2.49019599
691.67498779	2.62745094
691.67901611	2.74509811
691.68304443	2.72549009
691.68719482	2.50980401
691.69134521	2.50980401
691.69531250	2.60784316
691.69958496	2.68627453
691.69958496	2.68627453
691.70355225	2.54901958
691.70776367	2.39215684
691.71191406	2.31372547
691.71582031	2.49019599
691.71997070	2.54901958
691.72412109	2.47058821
691.72827148	2.37254906
691.72827148	2.31372547
691.73223877	2.39215684
691.73638916	2.52941179
691.74066162	2.64705873
691.74066162	2.62745094
691.74462891	2.50980401
691.74871826	2.41176462
691.75280762	2.43137264
691.75689697	2.54901958
691.75689697	2.64705873
691.76104736	2.66666675
691.76513672	2.54901958
691.76928711	2.45098042
691.76928711	2.43137264
691.77337646	2.54901958
691.77734375	2.64705873
691.78143311	2.70588231
691.78558350	2.62745094
691.78558350	2.50980401
691.78961182	2.43137264
691.79376221	2.49019599
691.79779053	2.58823538
691.79779053	2.62745094
691.80200195	2.52941179
691.80596924	2.37254906
691.81011963	2.25490189
691.81420898	2.25490189
691.81420898	2.37254906
691.81829834	2.47058821
691.82232666	2.47058821
691.82659912	2.35294127
691.82659912	2.27450991
691.83056641	2.31372547
691.83477783	2.45098042
691.83874512	2.56862736
691.84283447	2.60784316
691.84283447	2.50980401
691.84698486	2.39215684
691.85113525	2.33333325
691.85522461	2.39215684
691.85522461	2.49019599
691.85919189	2.52941179
691.86334229	2.43137264
691.86749268	2.29411769
691.87164307	2.21568632
691.87164307	2.25490189
691.87561035	2.37254906
691.87982178	2.47058821
691.88391113	2.43137264
691.88391113	2.31372547
691.88800049	2.21568632
691.89215088	2.25490189
691.89611816	2.37254906
691.90014648	2.47058821
691.90014648	2.49019599
691.90447998	2.37254906
691.90850830	2.27450991
691.91265869	2.23529410
691.91265869	2.33333325
691.91656494	2.45098042
691.92071533	2.49019599
691.92486572	2.41176462
691.92895508	2.21568632
691.93298340	2.27450991
691.93707275	2.39215684
691.94116211	2.47058821
691.94116211	2.43137264
691.94531250	2.29411769
691.94934082	2.19607854
691.95361328	2.23529410
691.95764160	2.43137264
691.96179199	2.43137264
691.96575928	2.33333325
691.96984863	2.23529410
691.96984863	2.25490189
691.97399902	2.37254906
691.97814941	2.49019599
691.98223877	2.54901958
691.98626709	2.39215684
691.99041748	2.33333325
691.99456787	2.41176462
691.99853516	2.52941179
691.99853516	2.58823538
692.00280762	2.49019599
692.00683594	2.33333325
692.01092529	2.21568632
692.01501465	2.35294127
692.01898193	2.39215684
692.02319336	2.35294127
692.02728271	2.25490189
692.02728271	2.15686274
692.03131104	2.19607854
692.03533936	2.33333325
692.03967285	2.45098042
692.03967285	2.47058821
692.04370117	2.39215684
692.04779053	2.31372547
692.05194092	2.25490189
692.05584717	2.33333325
692.05584717	2.41176462
692.06005859	2.41176462
692.06414795	2.29411769
692.06829834	2.13725495
692.06829834	2.01960778
692.07226563	2.03921580
692.07629395	2.09803915
692.08050537	2.13725495
692.08453369	2.05882359
692.08453369	1.92156863
692.08874512	1.82352936
692.09277344	1.84313726
692.09686279	1.94117641
692.09686279	2.01960778
692.10101318	2.01960778
692.10510254	1.90196073
692.10906982	1.80392158
692.11322021	1.76470590
692.11322021	1.86274505
692.11730957	1.92156863
692.12139893	1.92156863
692.12554932	1.78431368
692.12554932	1.64705884
692.12957764	1.56862748
692.13366699	1.56862748
692.13781738	1.64705884
692.14190674	1.66666663
692.14190674	1.58823526
692.14593506	1.45098042
692.15008545	1.35294116
692.15423584	1.41176474
692.15423584	1.52941179
692.15832520	1.62745094
692.16235352	1.62745094
692.16656494	1.52941179
692.17059326	1.45098042
692.17059326	1.49019611
692.17474365	1.62745094
692.17883301	1.70588231
692.18280029	1.74509799
692.18280029	1.66666663
692.18707275	1.54901958
692.19116211	1.50980389
692.19512939	1.58823526
692.19921875	1.70588231
692.20330811	1.62745094
692.20745850	1.52941179
692.21166992	1.47058821
692.21166992	1.52941179
692.21563721	1.64705884
692.21972656	1.72549021
692.22381592	1.70588231
692.22796631	1.54901958
692.23211670	1.60784316
692.23608398	1.70588231
692.24023438	1.80392158
692.24023438	1.82352936
692.24432373	1.72549021
692.24853516	1.66666663
692.25256348	1.64705884
692.25659180	1.86274505
692.26080322	1.88235295
692.26483154	1.82352936
692.26910400	1.72549021
692.26910400	1.68627453
692.27294922	1.78431368
692.27709961	1.90196073
692.28125000	1.98039210
692.28533936	1.82352936
692.28930664	1.76470590
692.29364014	1.82352936
692.29760742	1.94117641
692.29760742	2.05882359
692.30175781	2.01960778
692.30572510	1.94117641
692.30981445	1.86274505
692.30981445	1.90196073
692.31396484	2.00000000
692.31805420	2.11764717
692.32220459	2.15686274
692.32617188	2.05882359
692.32617188	1.96078432
692.33032227	1.90196073
692.33447266	1.96078432
692.33862305	2.00000000
692.33862305	1.98039210
692.34265137	1.82352936
692.34674072	1.64705884
692.35089111	1.52941179
692.35498047	1.56862748
692.35498047	1.68627453
692.35894775	1.78431368
692.36309814	1.78431368
692.36724854	1.74509799
692.36724854	1.72549021
692.37133789	1.78431368
692.37548828	1.94117641
692.37957764	2.07843137
692.38354492	2.11764717
692.38354492	2.05882359
692.38769531	2.03921580
692.39190674	2.07843137
692.39599609	2.23529410
692.39599609	2.41176462
692.39996338	2.50980401
692.40411377	2.47058821
692.40826416	2.43137264
692.41235352	2.43137264
692.41235352	2.56862736
692.41632080	2.68627453
692.42047119	2.80392146
692.42462158	2.78431368
692.42462158	2.68627453
692.42871094	2.66666675
692.43273926	2.74509811
692.43682861	2.86274505
692.44091797	2.98039222
692.44091797	3.00000000
692.44506836	2.94117641
692.44903564	2.88235283
692.45324707	2.92156863
692.45324707	3.07843137
692.45733643	3.23529410
692.46148682	3.27450991
692.46563721	3.19607854
692.46960449	3.11764717
692.47375488	3.21568632
692.47790527	3.33333325
692.48199463	3.37254906
692.48199463	3.29411769
692.48596191	3.17647052
692.49011230	3.09803915
692.49420166	3.13725495
692.49835205	3.29411769
692.50231934	3.25490189
692.50671387	3.11764717
692.51062012	3.05882359
692.51062012	3.07843137
692.51470947	3.21568632
692.51885986	3.29411769
692.52288818	3.31372547
692.52697754	3.15686274
692.53106689	3.15686274
692.53515625	3.25490189
692.53930664	3.35294127
692.53930664	3.37254906
692.54333496	3.27450991
692.54748535	3.13725495
692.55157471	3.07843137
692.55572510	3.23529410
692.55969238	3.29411769
692.56378174	3.23529410
692.56793213	3.11764717
692.56793213	3.01960778
692.57208252	3.03921580
692.57611084	3.13725495
692.58020020	3.21568632
692.58020020	3.17647052
692.58435059	3.05882359
692.58850098	2.96078420
692.59259033	2.94117641
692.59661865	3.01960778
692.59661865	3.09803915
692.60076904	3.07843137
692.60491943	2.96078420
692.60894775	2.84313726
692.60894775	2.78431368
692.61297607	2.86274505
692.61718750	2.98039222
692.62127686	3.03921580
692.62542725	2.96078420
692.62542725	2.86274505
692.62939453	2.82352948
692.63360596	2.90196085
692.63763428	3.00000000
692.63763428	3.09803915
692.64178467	3.07843137
692.64575195	2.94117641
692.64984131	2.86274505
692.65411377	2.88235283
692.65411377	2.96078420
692.65832520	3.03921580
692.66223145	3.01960778
692.66632080	2.90196085
692.66632080	2.78431368
692.67041016	2.74509811
692.67456055	2.84313726
692.67858887	2.92156863
692.68267822	2.92156863
692.68267822	2.82352948
692.68670654	2.66666675
692.69085693	2.60784316
692.69488525	2.66666675
692.69488525	2.76470590
692.69891357	2.82352948
692.70306396	2.74509811
692.70721436	2.62745094
692.71130371	2.54901958
692.71130371	2.56862736
692.71545410	2.68627453
692.71954346	2.74509811
692.72357178	2.72549009
692.72357178	2.64705873
692.72772217	2.54901958
692.73181152	2.54901958
692.73577881	2.66666675
692.73992920	2.76470590
692.73992920	2.80392146
692.74407959	2.70588231
692.74816895	2.60784316
692.75231934	2.56862736
692.75231934	2.66666675
692.75634766	2.78431368
692.76062012	2.82352948
692.76458740	2.74509811
692.76867676	2.54901958
692.77270508	2.58823538
692.77685547	2.66666675
692.78100586	2.72549009
692.78100586	2.66666675
692.78509521	2.52941179
692.78918457	2.41176462
692.79321289	2.43137264
692.79736328	2.60784316
692.80145264	2.60784316
692.80560303	2.50980401
692.80963135	2.43137264
692.80963135	2.41176462
692.81372070	2.52941179
692.81781006	2.64705873
692.82196045	2.72549009
692.82592773	2.56862736
692.83007813	2.52941179
692.83422852	2.60784316
692.83837891	2.72549009
692.83837891	2.80392146
692.84234619	2.76470590
692.84661865	2.64705873
692.85058594	2.56862736
692.85058594	2.58823538
692.85473633	2.66666675
692.85894775	2.74509811
692.86285400	2.70588231
692.86694336	2.60784316
692.86694336	2.50980401
692.87109375	2.50980401
692.87524414	2.60784316
692.87927246	2.70588231
692.87927246	2.72549009
692.88330078	2.66666675
692.88739014	2.56862736
692.89166260	2.54901958
692.89575195	2.64705873
692.89575195	2.76470590
692.89971924	2.80392146
692.90380859	2.74509811
692.90789795	2.64705873
692.90789795	2.58823538
692.91204834	2.66666675
692.91607666	2.76470590
692.92028809	2.84313726
692.92437744	2.80392146
692.92437744	2.66666675
692.92846680	2.56862736
692.93261719	2.58823538
692.93670654	2.68627453
692.93670654	2.76470590
692.94067383	2.76470590
692.94482422	2.64705873
692.94891357	2.52941179
692.95294189	2.50980401
692.95294189	2.60784316
692.95709229	2.68627453
692.96124268	2.72549009
692.96533203	2.62745094
692.96533203	2.52941179
692.96936035	2.47058821
692.97363281	2.52941179
692.97760010	2.62745094
692.98175049	2.68627453
692.98175049	2.60784316
692.98571777	2.47058821
692.98986816	2.39215684
692.99395752	2.41176462
692.99395752	2.49019599
692.99804688	2.54901958
693.00219727	2.50980401
693.00616455	2.39215684
693.01049805	2.27450991
693.01049805	2.27450991
693.01446533	2.35294127
693.01855469	2.45098042
693.02270508	2.43137264
693.02270508	2.31372547
693.02673340	2.19607854
693.03082275	2.13725495
693.03497314	2.15686274
693.03906250	2.21568632
693.04309082	2.05882359
693.04718018	1.90196073
693.05133057	1.74509799
693.05133057	1.70588231
693.05548096	1.72549021
693.05963135	1.72549021
693.06353760	1.62745094
693.06768799	1.37254906
693.07177734	1.37254906
693.07580566	1.49019611
693.07995605	1.58823526
693.07995605	1.58823526
693.08404541	1.52941179
693.08825684	1.45098042
693.09234619	1.45098042
693.09631348	1.70588231
693.10064697	1.78431368
693.10461426	1.76470590
693.10870361	1.70588231
693.10870361	1.70588231
693.11273193	1.80392158
693.11682129	1.96078432
693.12103271	2.07843137
693.12103271	2.05882359
693.12506104	2.00000000
693.12921143	1.98039210
693.13311768	2.03921580
693.13732910	2.17647052
693.13732910	2.31372547
693.14147949	2.35294127
693.14562988	2.33333325
693.14971924	2.33333325
693.14971924	2.39215684
693.15368652	2.54901958
693.15783691	2.72549009
693.16198730	2.84313726
693.16613770	2.84313726
693.16613770	2.82352948
693.17010498	2.86274505
693.17419434	3.00000000
693.17840576	3.15686274
693.17840576	3.25490189
693.18249512	3.21568632
693.18664551	3.13725495
693.19061279	3.07843137
693.19476318	3.11764717
693.19476318	3.23529410
693.19885254	3.31372547
693.20281982	3.25490189
693.20697021	3.15686274
693.20697021	3.05882359
693.21118164	3.07843137
693.21514893	3.17647052
693.21948242	3.25490189
693.22338867	3.25490189
693.22338867	3.15686274
693.22753906	3.05882359
693.23156738	3.01960778
693.23571777	3.11764717
693.23571777	3.19607854
693.23968506	3.21568632
693.24383545	3.13725495
693.24792480	3.01960778
693.25201416	2.96078420
693.25201416	3.01960778
693.25604248	3.11764717
693.26019287	3.17647052
693.26434326	3.09803915
693.26434326	2.98039222
693.26855469	2.88235283
693.27258301	2.88235283
693.27661133	2.96078420
693.28070068	3.01960778
693.28070068	2.98039222
693.28485107	2.86274505
693.28894043	2.74509811
693.29309082	2.72549009
693.29309082	2.80392146
693.29711914	2.90196085
693.30120850	2.92156863
693.30535889	2.82352948
693.30950928	2.68627453
693.31353760	2.76470590
693.31756592	2.84313726
693.32165527	2.90196085
693.32165527	2.82352948
693.32586670	2.70588231
693.32977295	2.62745094
693.33392334	2.64705873
693.33807373	2.78431368
693.34222412	2.72549009
693.34625244	2.60784316
693.35034180	2.49019599
693.35034180	2.50980401
693.35449219	2.60784316
693.35852051	2.68627453
693.36273193	2.68627453
693.36669922	2.50980401
693.37084961	2.47058821
693.37500000	2.54901958
693.37915039	2.66666675
693.37915039	2.74509811
693.38317871	2.64705873
693.38726807	2.50980401
693.39135742	2.45098042
693.39135742	2.52941179
693.39538574	2.64705873
693.39959717	2.70588231
693.40350342	2.62745094
693.40771484	2.50980401
693.40771484	2.43137264
693.41186523	2.45098042
693.41601563	2.56862736
693.41998291	2.66666675
693.41998291	2.66666675
693.42407227	2.58823538
693.42828369	2.50980401
693.43237305	2.50980401
693.43646240	2.62745094
693.43646240	2.76470590
693.44055176	2.82352948
693.44458008	2.74509811
693.44873047	2.64705873
693.44873047	2.60784316
693.45269775	2.66666675
693.45684814	2.78431368
693.46093750	2.84313726
693.46508789	2.78431368
693.46508789	2.66666675
693.46923828	2.60784316
693.47320557	2.64705873
693.47735596	2.72549009
693.47735596	2.80392146
693.48150635	2.76470590
693.48559570	2.66666675
693.48962402	2.56862736
693.49371338	2.56862736
693.49371338	2.66666675
693.49780273	2.74509811
693.50195313	2.76470590
693.50610352	2.68627453
693.50610352	2.60784316
693.51013184	2.58823538
693.51422119	2.68627453
693.51831055	2.76470590
693.52246094	2.82352948
693.52246094	2.74509811
693.52673340	2.62745094
693.53051758	2.58823538
693.53472900	2.64705873
693.53472900	2.74509811
693.53881836	2.80392146
693.54284668	2.76470590
693.54699707	2.64705873
693.55108643	2.54901958
693.55108643	2.58823538
693.55523682	2.66666675
693.55932617	2.74509811
693.56335449	2.72549009
693.56335449	2.60784316
693.56756592	2.50980401
693.57159424	2.47058821
693.57568359	2.56862736
693.57971191	2.62745094
693.58380127	2.50980401
693.58795166	2.39215684
693.59210205	2.31372547
693.59210205	2.35294127
693.59625244	2.43137264
693.60021973	2.45098042
693.60437012	2.37254906
693.60839844	2.15686274
693.61260986	2.17647052
693.61657715	2.27450991
693.62072754	2.35294127
693.62072754	2.31372547
693.62487793	2.21568632
693.62890625	2.13725495
693.63305664	2.15686274
693.63696289	2.35294127
693.64117432	2.39215684
693.64532471	2.33333325
693.64947510	2.25490189
693.64947510	2.21568632
693.65362549	2.33333325
693.65759277	2.43137264
693.66174316	2.49019599
693.66583252	2.33333325
693.66986084	2.27450991
693.67395020	2.33333325
693.67810059	2.43137264
693.67810059	2.50980401
693.68218994	2.45098042
693.68621826	2.33333325
693.69030762	2.23529410
693.69030762	2.25490189
693.69445801	2.35294127
693.69860840	2.43137264
693.70263672	2.43137264
693.70666504	2.33333325
693.70666504	2.25490189
693.71075439	2.25490189
693.71496582	2.37254906
693.71905518	2.47058821
693.71905518	2.52941179
693.72308350	2.47058821
693.72723389	2.39215684
693.73132324	2.39215684
693.73547363	2.49019599
693.73547363	2.60784316
693.73962402	2.70588231
693.74359131	2.66666675
693.74768066	2.56862736
693.74768066	2.50980401
693.75183105	2.54901958
693.75604248	2.64705873
693.76007080	2.72549009
693.76416016	2.70588231
693.76416016	2.58823538
693.76824951	2.50980401
693.77233887	2.50980401
693.77685547	2.62745094
693.77685547	2.72549009
693.78070068	2.74509811
693.78460693	2.64705873
693.78863525	2.56862736
693.79284668	2.56862736
693.79284668	2.64705873
693.79681396	2.72549009
693.80096436	2.78431368
693.80511475	2.70588231
693.80511475	2.58823538
693.80920410	2.50980401
693.81323242	2.52941179
693.81732178	2.62745094
693.82141113	2.66666675
693.82141113	2.58823538
693.82550049	2.45098042
693.82958984	2.37254906
693.83361816	2.37254906
693.83361816	2.45098042
693.83789063	2.52941179
693.84191895	2.54901958
693.84613037	2.45098042
693.85009766	2.33333325
693.85424805	2.43137264
693.85827637	2.54901958
693.86248779	2.58823538
693.86248779	2.49019599
693.86663818	2.37254906
693.87060547	2.33333325
693.87469482	2.39215684
693.87890625	2.54901958
693.88293457	2.47058821
693.88702393	2.33333325
693.89111328	2.25490189
693.89111328	2.29411769
693.89520264	2.39215684
693.89935303	2.45098042
693.90338135	2.41176462
693.90753174	2.21568632
693.91162109	2.21568632
693.91571045	2.33333325
693.91986084	2.45098042
693.91986084	2.49019599
693.92382813	2.43137264
693.92803955	2.37254906
693.93212891	2.37254906
693.93621826	2.62745094
693.94024658	2.72549009
693.94433594	2.66666675
693.94848633	2.56862736
693.94848633	2.50980401
693.95251465	2.54901958
693.95660400	2.64705873
693.96069336	2.68627453
693.96069336	2.60784316
693.96484375	2.47058821
693.96893311	2.35294127
693.97308350	2.33333325
693.97705078	2.41176462
693.97705078	2.49019599
693.98120117	2.47058821
693.98535156	2.39215684
693.98950195	2.31372547
693.98950195	2.33333325
693.99359131	2.47058821
693.99761963	2.60784316
694.00170898	2.70588231
694.00579834	2.64705873
694.00579834	2.58823538
694.00982666	2.58823538
694.01397705	2.68627453
694.01806641	2.80392146
694.01806641	2.86274505
694.02233887	2.80392146
694.02630615	2.66666675
694.03039551	2.56862736
694.03448486	2.56862736
694.03448486	2.64705873
694.03863525	2.68627453
694.04272461	2.60784316
694.04681396	2.45098042
694.04681396	2.33333325
694.05084229	2.29411769
694.05499268	2.39215684
694.05908203	2.49019599
694.06323242	2.49019599
694.06323242	2.39215684
694.06719971	2.31372547
694.07135010	2.29411769
694.07543945	2.43137264
694.07543945	2.58823538
694.07958984	2.68627453
694.08355713	2.64705873
694.08764648	2.56862736
694.09191895	2.52941179
694.09191895	2.60784316
694.09600830	2.72549009
694.09997559	2.78431368
694.10406494	2.72549009
694.10406494	2.58823538
694.10821533	2.45098042
694.11242676	2.43137264
694.11645508	2.50980401
694.12060547	2.52941179
694.12457275	2.43137264
694.12872314	2.33333325
694.13281250	2.33333325
694.13281250	2.45098042
694.13677979	2.56862736
694.14093018	2.64705873
694.14508057	2.58823538
694.14916992	2.50980401
694.15319824	2.58823538
694.15734863	2.72549009
694.16149902	2.78431368
694.16149902	2.70588231
694.16558838	2.56862736
694.16973877	2.47058821
694.17370605	2.47058821
694.17779541	2.58823538
694.18200684	2.52941179
694.18609619	2.39215684
694.19012451	2.29411769
694.19012451	2.27450991
694.19421387	2.35294127
694.19830322	2.45098042
694.20251465	2.47058821
694.20654297	2.27450991
694.21057129	2.27450991
694.21466064	2.37254906
694.21887207	2.49019599
694.21887207	2.56862736
694.22283936	2.52941179
694.22698975	2.41176462
694.23107910	2.33333325
694.23107910	2.39215684
694.23529053	2.47058821
694.23944092	2.54901958
694.24340820	2.50980401
694.24761963	2.39215684
694.24761963	2.33333325
694.25164795	2.37254906
694.25573730	2.45098042
694.25988770	2.56862736
694.25988770	2.56862736
694.26416016	2.47058821
694.26800537	2.37254906
694.27209473	2.35294127
694.27624512	2.43137264
694.27624512	2.52941179
694.28033447	2.56862736
694.28436279	2.47058821
694.28845215	2.39215684
694.28845215	2.35294127
694.29254150	2.45098042
694.29656982	2.54901958
694.30072021	2.62745094
694.30480957	2.60784316
694.30480957	2.52941179
694.30895996	2.45098042
694.31311035	2.50980401
694.31701660	2.62745094
694.31701660	2.74509811
694.32116699	2.74509811
694.32525635	2.62745094
694.32946777	2.54901958
694.33349609	2.54901958
694.33349609	2.62745094
694.33758545	2.70588231
694.34167480	2.70588231
694.34582520	2.56862736
694.34582520	2.43137264
694.34979248	2.37254906
694.35394287	2.43137264
694.35809326	2.50980401
694.36224365	2.54901958
694.36224365	2.49019599
694.36633301	2.39215684
694.37030029	2.33333325
694.37457275	2.41176462
694.37457275	2.56862736
694.37860107	2.68627453
694.38269043	2.68627453
694.38665771	2.62745094
694.39080811	2.56862736
694.39080811	2.62745094
694.39489746	2.76470590
694.39904785	2.86274505
694.40319824	2.86274505
694.40319824	2.76470590
694.40716553	2.64705873
694.41137695	2.60784316
694.41546631	2.68627453
694.41961670	2.72549009
694.42358398	2.62745094
694.42767334	2.47058821
694.43188477	2.37254906
694.43188477	2.41176462
694.43591309	2.49019599
694.43988037	2.52941179
694.44409180	2.47058821
694.44824219	2.23529410
694.45233154	2.23529410
694.45642090	2.35294127
694.46051025	2.45098042
694.46051025	2.43137264
694.46453857	2.37254906
694.46875000	2.27450991
694.47277832	2.29411769
694.47686768	2.50980401
694.48089600	2.54901958
694.48510742	2.49019599
694.48919678	2.39215684
694.48919678	2.35294127
694.49322510	2.45098042
694.49731445	2.54901958
694.50158691	2.60784316
694.50567627	2.43137264
694.50976563	2.33333325
694.51403809	2.39215684
694.51794434	2.50980401
694.51794434	2.58823538
694.52215576	2.56862736
694.52612305	2.49019599
694.53039551	2.41176462
694.53039551	2.43137264
694.53430176	2.52941179
694.53833008	2.60784316
694.54248047	2.60784316
694.54650879	2.50980401
694.54650879	2.39215684
694.55053711	2.29411769
694.55468750	2.35294127
694.55877686	2.45098042
694.55877686	2.47058821
694.56298828	2.41176462
694.56695557	2.27450991
694.57104492	2.11764717
694.57513428	2.11764717
694.57513428	2.23529410
694.57934570	2.39215684
694.58331299	2.49019599
694.58758545	2.49019599
694.58758545	2.47058821
694.59155273	2.56862736
694.59570313	2.76470590
694.59985352	2.92156863
694.60382080	2.98039222
694.60382080	2.96078420
694.60797119	2.94117641
694.61212158	2.96078420
694.61621094	3.09803915
694.61621094	3.23529410
694.62017822	3.29411769
694.62432861	3.17647052
694.62847900	3.01960778
694.63262939	2.96078420
694.63262939	2.88235283
694.63665771	2.84313726
694.64074707	2.88235283
694.64483643	2.90196085
694.64483643	2.86274505
694.64898682	2.84313726
694.65313721	3.00000000
694.65704346	3.19607854
694.66119385	3.29411769
694.66119385	3.25490189
694.66534424	3.11764717
694.66949463	2.96078420
694.67358398	2.88235283
694.67358398	2.92156863
694.67761230	2.96078420
694.68170166	2.94117641
694.68585205	2.78431368
694.69000244	2.37254906
694.69396973	2.50980401
694.69805908	2.86274505
694.70214844	3.13725495
694.70214844	3.25490189
694.70629883	3.31372547
694.71032715	3.35294127
694.71453857	3.41176462
694.71856689	3.52941179
694.72271729	3.43137264
694.72668457	3.15686274
694.73083496	2.68627453
694.73083496	2.49019599
694.73498535	2.37254906
694.73907471	2.27450991
694.74316406	2.09803915
694.74719238	1.76470590
694.75134277	1.74509799
694.75543213	1.82352936
694.75958252	1.92156863
694.75958252	1.98039210
694.76361084	1.94117641
694.76770020	1.94117641
694.77178955	2.13725495
694.77600098	2.78431368
694.77996826	3.13725495
694.78424072	3.33333325
694.78820801	3.33333325
694.78820801	3.29411769
694.79229736	3.54901958
694.79644775	3.80392146
694.80059814	3.90196085
694.80059814	3.90196085
694.80462646	3.78431368
694.80883789	3.72549009
694.81280518	3.66666675
694.81689453	3.62745094
694.81689453	3.54901958
694.82092285	3.39215684
694.82501221	3.09803915
694.82922363	2.88235283
694.82922363	2.90196085
694.83337402	3.09803915
694.83734131	3.23529410
694.84155273	3.17647052
694.84564209	3.00000000
694.84564209	2.86274505
694.84973145	2.68627453
694.85369873	2.58823538
694.85784912	2.39215684
694.85784912	2.31372547
694.86193848	2.05882359
694.86608887	1.82352936
694.87011719	1.62745094
694.87426758	1.41176474
694.87426758	1.45098042
694.87835693	1.43137252
694.88250732	1.29411769
694.88659668	1.19607842
694.88659668	1.19607842
694.89062500	1.19607842
694.89465332	1.17647064
694.89874268	1.25490201
694.90295410	1.33333337
694.90295410	1.37254906
694.90698242	1.43137252
694.91113281	1.54901958
694.91522217	1.80392158
694.91522217	1.90196073
694.91937256	2.17647052
694.92333984	2.41176462
694.92755127	2.49019599
694.93157959	2.45098042
694.93157959	2.68627453
694.93585205	2.84313726
694.93994141	2.92156863
694.94378662	2.86274505
694.94378662	2.86274505
694.94793701	2.86274505
694.95202637	2.86274505
694.95617676	2.78431368
694.96026611	2.82352948
694.96026611	2.80392146
694.96429443	2.92156863
694.96844482	2.96078420
694.97253418	3.01960778
694.97253418	3.21568632
694.97674561	3.45098042
694.98071289	3.60784316
694.98486328	3.58823538
694.98895264	3.49019599
694.99310303	3.54901958
694.99700928	3.62745094
695.00115967	3.76470590
695.00115967	3.68627453
695.00524902	3.60784316
695.00939941	3.41176462
695.01361084	3.35294127
695.01751709	3.11764717
695.02172852	2.82352948
695.02581787	2.37254906
695.02996826	1.94117641
695.02996826	1.62745094
695.03393555	1.39215684
695.03808594	1.21568632
695.04217529	1.03921568
695.04638672	0.62745100
695.05035400	0.54901963
695.05462646	0.68627453
695.05865479	0.82352942
695.05865479	0.96078432
695.06274414	1.00000000
695.06689453	0.90196079
695.07086182	0.90196079
695.07086182	1.00000000
695.07495117	1.11764705
695.07910156	1.19607842
695.08325195	1.15686274
695.08721924	0.98039216
695.08721924	0.84313726
695.09130859	0.66666669
695.09552002	0.66666669
695.09967041	0.68627453
695.09967041	0.70588237
695.10363770	0.72549021
695.10778809	0.80392158
695.11193848	0.96078432
695.11596680	1.33333337
695.11596680	1.74509799
695.12011719	2.17647052
695.12414551	2.56862736
695.12823486	2.86274505
695.12823486	3.15686274
695.13238525	3.58823538
695.13647461	3.98039222
695.14056396	4.17647076
695.14465332	4.29411745
695.14465332	4.37254906
695.14874268	4.50980377
695.15283203	4.50980377
695.15692139	4.58823538
695.15692139	4.56862736
695.16101074	4.43137264
695.16503906	4.03921556
695.16918945	3.82352948
695.17327881	3.47058821
695.17327881	3.23529410
695.17736816	2.86274505
695.18157959	2.35294127
695.18554688	1.82352936
695.18554688	1.47058821
695.18969727	1.19607842
695.19366455	1.15686274
695.19781494	1.05882359
695.20190430	0.94117647
695.20190430	0.80392158
695.20611572	0.68627453
695.21008301	0.74509805
695.21417236	0.92156863
695.21417236	1.19607842
695.21826172	1.41176474
695.22241211	1.52941179
695.22656250	1.56862748
695.23052979	1.90196073
695.23468018	2.13725495
695.23876953	2.43137264
695.24291992	2.60784316
695.24291992	2.78431368
695.24694824	2.90196085
695.25103760	3.03921580
695.25512695	3.25490189
695.25921631	3.64705873
695.26342773	3.64705873
695.26776123	3.56862736
695.27154541	3.49019599
695.27154541	3.50980401
695.27569580	3.50980401
695.27978516	3.41176462
695.28381348	3.29411769
695.28790283	3.00000000
695.29199219	2.90196085
695.29620361	2.94117641
695.30029297	2.88235283
695.30029297	2.76470590
695.30426025	2.50980401
695.30841064	2.25490189
695.31256104	2.03921580
695.31665039	2.01960778
695.32061768	2.00000000
695.32482910	1.92156863
695.32891846	1.90196073
695.32891846	1.96078432
695.33306885	2.09803915
695.33709717	2.35294127
695.34118652	2.49019599
695.34118652	2.68627453
695.34533691	2.84313726
695.34948730	3.00000000
695.35357666	3.13725495
695.35760498	3.37254906
695.35760498	3.50980401
695.36169434	3.60784316
695.36584473	3.60784316
695.36999512	3.45098042
695.36999512	3.37254906
695.37390137	3.39215684
695.37811279	3.41176462
695.38226318	3.31372547
695.38635254	3.11764717
695.38635254	2.90196085
695.39031982	2.76470590
695.39465332	2.70588231
695.39862061	2.62745094
695.39862061	2.49019599
695.40270996	2.41176462
695.40673828	2.21568632
695.41082764	2.05882359
695.41491699	2.01960778
695.41491699	2.03921580
695.41906738	2.00000000
695.42321777	1.88235295
695.42736816	1.74509799
695.42736816	1.58823526
695.43133545	1.60784316
695.43548584	1.70588231
695.43957520	1.76470590
695.44372559	1.78431368
695.44372559	1.74509799
695.44763184	1.84313726
695.45178223	1.92156863
695.45593262	2.13725495
695.45593262	2.35294127
695.46008301	2.50980401
695.46398926	2.70588231
695.46820068	2.90196085
695.47229004	3.01960778
695.47229004	3.23529410
695.47644043	3.39215684
695.48059082	3.54901958
695.48449707	3.54901958
695.48449707	3.41176462
695.48870850	3.23529410
695.49285889	3.21568632
695.49700928	3.31372547
695.50097656	3.23529410
695.50512695	3.03921580
695.50921631	2.94117641
695.51336670	2.84313726
695.51336670	2.82352948
695.51733398	2.82352948
695.52172852	2.84313726
695.52563477	2.76470590
695.52966309	2.56862736
695.53375244	2.58823538
695.53784180	2.70588231
695.54187012	2.80392146
695.54187012	2.80392146
695.54608154	2.60784316
695.55023193	2.49019599
695.55419922	2.43137264
695.55828857	2.54901958
695.56243896	2.52941179
695.56652832	2.37254906
695.57061768	2.29411769
695.57061768	2.35294127
695.57464600	2.50980401
695.57879639	2.56862736
695.58294678	2.60784316
695.58703613	2.72549009
695.59106445	2.80392146
695.59521484	2.84313726
695.59930420	2.92156863
695.59930420	2.92156863
695.60345459	2.86274505
695.60760498	2.60784316
695.61157227	2.37254906
695.61157227	2.33333325
695.61572266	2.37254906
695.61981201	2.37254906
695.62384033	2.21568632
695.62792969	2.11764717
695.62792969	2.17647052
695.63208008	2.27450991
695.63616943	2.31372547
695.64031982	2.49019599
695.64031982	2.62745094
695.64428711	2.56862736
695.64843750	2.41176462
695.65258789	2.49019599
695.65673828	2.64705873
695.65673828	2.76470590
695.66070557	2.80392146
695.66485596	2.64705873
695.66894531	2.43137264
695.66894531	2.33333325
695.67309570	2.31372547
695.67700195	2.29411769
695.68115234	2.19607854
695.68530273	2.00000000
695.68530273	1.84313726
695.68939209	1.78431368
695.69360352	1.94117641
695.69763184	2.09803915
695.69763184	2.25490189
695.70166016	2.37254906
695.70587158	2.41176462
695.70989990	2.41176462
695.71405029	2.62745094
695.71405029	2.94117641
695.71807861	3.29411769
695.72222900	3.50980401
695.72631836	3.54901958
695.72631836	3.52941179
695.73046875	3.56862736
695.73455811	3.64705873
695.73858643	3.70588231
695.74267578	3.66666675
695.74267578	3.49019599
695.74682617	3.25490189
695.75079346	3.09803915
695.75488281	2.98039222
695.75488281	2.94117641
695.75903320	2.92156863
695.76312256	2.88235283
695.76727295	2.80392146
695.77130127	2.74509811
695.77545166	2.86274505
695.77954102	3.00000000
695.78369141	3.01960778
695.78369141	2.98039222
695.78765869	2.94117641
695.79180908	2.92156863
695.79589844	3.07843137
695.79998779	3.31372547
695.80401611	3.19607854
695.80816650	2.96078420
695.81225586	2.78431368
695.81225586	2.76470590
695.81640625	2.74509811
695.82049561	2.60784316
695.82446289	2.31372547
695.82867432	1.86274505
695.83282471	1.88235295
695.83697510	1.92156863
695.84094238	2.03921580
695.84094238	2.17647052
695.84509277	2.27450991
695.84918213	2.35294127
695.85333252	2.60784316
695.85729980	3.17647052
695.86163330	3.31372547
695.86553955	3.31372547
695.86968994	3.33333325
695.86968994	3.37254906
695.87371826	3.41176462
695.87780762	3.45098042
695.88195801	3.45098042
695.88195801	3.27450991
695.88598633	3.15686274
695.89013672	3.00000000
695.89416504	2.96078420
695.89831543	2.92156863
695.89831543	2.78431368
695.90246582	2.50980401
695.90655518	2.21568632
695.91070557	1.96078432
695.91070557	1.88235295
695.91473389	1.92156863
695.91882324	1.96078432
695.92291260	2.00000000
695.92706299	2.05882359
695.92706299	2.05882359
695.93103027	2.11764717
695.93518066	2.33333325
695.93933105	2.50980401
695.93933105	2.62745094
695.94348145	2.56862736
695.94757080	2.52941179
695.95153809	2.56862736
695.95562744	2.64705873
695.95562744	2.76470590
695.95983887	2.78431368
695.96380615	2.68627453
695.96795654	2.52941179
695.96795654	2.41176462
695.97210693	2.41176462
695.97619629	2.39215684
695.98034668	2.39215684
695.98431396	2.31372547
695.98431396	2.13725495
695.98858643	1.96078432
695.99255371	1.78431368
695.99670410	1.76470590
695.99670410	1.78431368
696.00067139	1.76470590
696.00476074	1.66666663
696.00891113	1.56862748
696.01300049	1.64705884
696.01300049	1.84313726
696.01702881	2.00000000
696.02117920	2.15686274
696.02539063	2.19607854
696.02539063	2.17647052
696.02947998	2.09803915
696.03356934	2.05882359
696.03753662	2.29411769
696.04162598	2.43137264
696.04577637	2.25490189
696.04986572	2.19607854
696.05401611	2.17647052
696.05401611	2.29411769
696.05804443	2.27450991
696.06219482	2.25490189
696.06628418	2.15686274
696.07037354	2.11764717
696.07446289	2.15686274
696.07855225	2.15686274
696.08264160	2.13725495
696.08264160	2.01960778
696.08679199	2.01960778
696.09082031	2.07843137
696.09497070	2.27450991
696.09906006	2.66666675
696.10321045	2.70588231
696.10729980	2.74509811
696.11132813	2.88235283
696.11132813	3.03921580
696.11541748	3.25490189
696.11956787	3.33333325
696.12371826	3.33333325
696.12774658	3.05882359
696.13183594	2.90196085
696.13598633	2.98039222
696.14007568	3.03921580
696.14007568	3.05882359
696.14404297	2.98039222
696.14819336	2.82352948
696.15240479	2.78431368
696.15240479	2.96078420
696.15637207	3.05882359
696.16058350	3.11764717
696.16455078	3.05882359
696.16870117	3.07843137
696.16870117	3.11764717
696.17285156	3.19607854
696.17700195	3.29411769
696.18103027	3.47058821
696.18103027	3.52941179
696.18505859	3.47058821
696.18914795	3.31372547
696.19329834	3.31372547
696.19744873	3.39215684
696.19744873	3.41176462
696.20147705	3.29411769
696.20550537	3.05882359
696.20971680	2.88235283
696.20971680	2.72549009
696.21380615	2.60784316
696.21777344	2.62745094
696.22192383	2.47058821
696.22607422	2.25490189
696.22607422	2.11764717
696.23016357	2.11764717
696.23419189	2.19607854
696.23822021	2.29411769
696.23822021	2.41176462
696.24243164	2.41176462
696.24658203	2.31372547
696.25054932	2.25490189
696.25463867	2.25490189
696.25463867	2.33333325
696.25878906	2.49019599
696.26287842	2.49019599
696.26702881	2.39215684
696.26702881	2.21568632
696.27099609	2.01960778
696.27520752	2.01960778
696.27929688	2.01960778
696.28338623	1.98039210
696.28338623	1.70588231
696.28753662	1.50980389
696.29150391	1.41176474
696.29565430	1.47058821
696.29565430	1.50980389
696.29980469	1.56862748
696.30377197	1.54901958
696.30792236	1.64705884
696.31207275	1.76470590
696.31207275	1.92156863
696.31616211	2.23529410
696.32031250	2.50980401
696.32434082	2.70588231
696.32434082	2.84313726
696.32855225	2.98039222
696.33245850	3.23529410
696.33666992	3.58823538
696.34082031	3.80392146
696.34478760	3.76470590
696.34893799	3.72549009
696.35308838	3.68627453
696.35308838	3.62745094
696.35717773	3.52941179
696.36114502	3.33333325
696.36529541	3.15686274
696.36944580	2.62745094
696.37359619	2.64705873
696.37762451	2.62745094
696.38171387	2.60784316
696.38171387	2.35294127
696.38586426	2.31372547
696.38995361	2.29411769
696.39404297	2.47058821
696.39801025	2.76470590
696.40209961	2.80392146
696.40631104	2.80392146
696.41046143	2.82352948
696.41046143	2.86274505
696.41455078	2.96078420
696.41857910	3.00000000
696.42266846	2.98039222
696.42266846	2.86274505
696.42681885	2.60784316
696.43078613	2.52941179
696.43487549	2.49019599
696.43902588	2.54901958
696.43902588	2.49019599
696.44317627	2.35294127
696.44726563	2.25490189
696.45123291	2.17647052
696.45123291	2.11764717
696.45538330	2.17647052
696.45959473	2.17647052
696.46368408	2.33333325
696.46783447	2.33333325
696.46783447	2.29411769
696.47180176	2.35294127
696.47607422	2.49019599
696.48004150	2.58823538
696.48004150	2.62745094
696.48406982	2.54901958
696.48815918	2.45098042
696.49224854	2.43137264
696.49639893	2.52941179
696.49639893	2.60784316
696.50054932	2.64705873
696.50451660	2.54901958
696.50866699	2.43137264
696.50866699	2.33333325
696.51275635	2.31372547
696.51690674	2.37254906
696.52081299	2.39215684
696.52502441	2.31372547
696.52502441	2.19607854
696.52917480	2.21568632
696.53332520	2.29411769
696.53747559	2.43137264
696.53747559	2.50980401
696.54150391	2.45098042
696.54553223	2.41176462
696.54968262	2.39215684
696.55383301	2.43137264
696.55383301	2.50980401
696.55780029	2.56862736
696.56188965	2.60784316
696.56604004	2.50980401
696.56604004	2.43137264
696.57012939	2.47058821
696.57409668	2.64705873
696.57830811	2.80392146
696.58251953	2.90196085
696.58251953	2.88235283
696.58654785	2.84313726
696.59063721	2.78431368
696.59472656	2.82352948
696.59472656	2.92156863
696.59881592	3.01960778
696.60296631	3.00000000
696.60705566	2.90196085
696.61108398	2.88235283
696.61517334	2.94117641
696.61932373	3.00000000
696.62341309	3.00000000
696.62341309	2.94117641
696.62756348	2.84313726
696.63153076	2.78431368
696.63568115	2.82352948
696.63977051	3.09803915
696.64392090	3.11764717
696.64782715	3.11764717
696.65203857	3.19607854
696.65203857	3.29411769
696.65618896	3.43137264
696.66033936	3.49019599
696.66442871	3.49019599
696.66857910	3.31372547
696.67254639	3.27450991
696.67669678	3.25490189
696.68084717	3.15686274
696.68084717	2.98039222
696.68481445	2.72549009
696.68890381	2.43137264
696.69299316	2.23529410
696.69299316	2.11764717
696.69732666	2.03921580
696.70123291	1.94117641
696.70538330	1.80392158
696.70965576	1.70588231
696.70965576	1.66666663
696.71350098	1.72549021
696.71765137	1.88235295
696.72167969	2.01960778
696.72167969	3.49019599
696.72576904	4.98039198
696.72991943	4.98039198
696.73406982	4.98039198
696.73809814	4.98039198
696.73809814	4.98039198
696.74218750	4.74509811
696.74633789	4.11764717
696.75042725	3.39215684
696.75042725	2.72549009
696.75457764	2.17647052
696.75848389	1.68627453
696.76269531	1.15686274
696.76672363	0.62745100
696.76672363	0.17647059
696.77075195	0.05882353
696.77490234	0.03921569
696.77905273	0.03921569
696.77905273	0.03921569
696.78314209	0.03921569
696.78729248	0.03921569
696.79132080	0.03921569
696.79553223	0.03921569
696.79553223	0.03921569
696.79956055	0.03921569
696.80371094	0.05882353
696.80780029	0.03921569
696.80780029	0.03921569
696.81176758	0.03921569
696.81591797	0.03921569
696.82012939	0.05882353
696.82421875	0.05882353
696.82421875	0.03921569
696.82818604	0.05882353
696.83233643	0.07843138
696.83636475	0.25490198
696.83636475	0.49019608
696.84057617	0.68627453
696.84460449	0.78431374
696.84863281	0.86274511
696.85278320	0.94117647
696.85278320	1.21568632
696.85693359	1.41176474
696.86096191	1.52941179
696.86505127	1.58823526
696.86505127	1.56862748
696.86920166	1.56862748
696.87335205	1.62745094
696.87744141	1.70588231
696.88159180	1.86274505
696.88555908	1.86274505
696.88970947	1.88235295
696.89379883	1.94117641
696.89379883	2.13725495
696.89776611	2.33333325
696.90191650	2.43137264
696.90594482	2.45098042
696.91015625	2.60784316
696.91418457	2.80392146
696.91833496	2.96078420
696.92254639	3.03921580
696.92254639	3.03921580
696.92657471	3.01960778
696.93066406	3.07843137
696.93469238	3.13725495
696.93878174	3.49019599
696.94293213	3.54901958
696.94702148	3.43137264
696.95117188	3.37254906
696.95117188	3.41176462
696.95513916	3.43137264
696.95928955	3.37254906
696.96337891	3.27450991
696.96337891	3.07843137
696.96759033	2.96078420
696.97149658	2.82352948
696.97564697	2.86274505
696.97973633	2.96078420
696.97973633	3.00000000
696.98394775	2.92156863
696.98791504	2.74509811
696.99200439	2.72549009
696.99200439	2.80392146
696.99615479	2.78431368
697.00036621	2.86274505
697.00451660	2.78431368
697.00860596	2.70588231
697.00860596	2.52941179
697.01263428	2.43137264
697.01678467	2.39215684
697.02081299	2.29411769
697.02081299	2.19607854
697.02514648	2.03921580
697.02905273	1.82352936
697.03320313	1.82352936
697.03723145	1.88235295
697.03723145	1.94117641
697.04119873	1.98039210
697.04528809	1.98039210
697.04974365	2.05882359
697.04974365	2.15686274
697.05358887	2.33333325
697.05755615	2.43137264
697.06164551	2.62745094
697.06579590	2.70588231
697.06579590	2.72549009
697.06994629	2.70588231
697.07403564	2.86274505
697.07806396	2.98039222
697.07806396	3.03921580
697.08209229	2.90196085
697.08630371	2.82352948
697.09045410	2.72549009
697.09460449	2.70588231
697.09460449	2.72549009
697.09857178	2.68627453
697.10272217	2.60784316
697.10687256	2.66666675
697.10687256	2.64705873
697.11090088	2.62745094
697.11499023	2.66666675
697.11914063	2.82352948
697.12322998	3.01960778
697.12322998	3.05882359
697.12738037	3.13725495
697.13134766	3.17647052
697.13562012	3.39215684
697.13562012	3.56862736
697.13958740	3.72549009
697.14373779	3.64705873
697.14782715	3.54901958
697.15179443	3.60784316
697.15594482	3.66666675
697.16009521	3.60784316
697.16418457	3.52941179
697.16418457	3.33333325
697.16815186	3.17647052
697.17230225	3.09803915
697.17645264	3.03921580
697.18054199	2.90196085
697.18457031	2.64705873
697.18865967	2.41176462
697.19281006	2.33333325
697.19281006	2.43137264
697.19689941	2.54901958
697.20098877	2.56862736
697.20507813	2.62745094
697.20910645	2.60784316
697.21325684	2.78431368
697.21740723	2.94117641
697.22155762	3.05882359
697.22155762	3.07843137
697.22552490	2.94117641
697.22967529	2.88235283
697.23382568	2.88235283
697.23382568	2.94117641
697.23779297	2.94117641
697.24188232	2.88235283
697.24603271	2.68627453
697.25012207	2.52941179
697.25012207	2.47058821
697.25427246	2.49019599
697.25823975	2.49019599
697.26257324	2.45098042
697.26257324	2.27450991
697.26654053	2.21568632
697.27062988	2.13725495
697.27459717	2.17647052
697.27874756	2.25490189
697.27874756	2.31372547
697.28289795	2.29411769
697.28710938	2.17647052
697.29119873	2.00000000
697.29119873	2.00000000
697.29516602	2.13725495
697.29925537	2.21568632
697.30340576	2.13725495
697.30749512	1.96078432
697.30749512	1.72549021
697.31152344	1.64705884
697.31561279	1.66666663
697.31976318	1.68627453
697.31976318	1.64705884
697.32391357	1.56862748
697.32788086	1.54901958
697.33203125	1.66666663
697.33612061	1.92156863
697.33612061	2.21568632
697.34027100	2.47058821
697.34429932	2.68627453
697.34857178	2.82352948
697.34857178	2.94117641
697.35253906	3.19607854
697.35668945	3.49019599
697.36077881	3.80392146
697.36492920	3.90196085
697.36492920	3.82352948
697.36889648	3.74509811
697.37298584	3.78431368
697.37713623	3.78431368
697.37713623	3.70588231
697.38110352	3.54901958
697.38531494	3.29411769
697.38946533	3.05882359
697.39355469	2.76470590
697.39355469	2.72549009
697.39776611	2.72549009
697.40173340	2.82352948
697.40582275	2.66666675
697.40582275	2.47058821
697.40991211	2.39215684
697.41412354	2.54901958
697.41796875	2.66666675
697.42218018	2.76470590
697.42633057	2.78431368
697.43041992	2.76470590
697.43457031	2.90196085
697.43457031	3.09803915
697.43847656	3.19607854
697.44268799	3.37254906
697.44677734	3.41176462
697.45092773	3.31372547
697.45495605	3.52941179
697.45904541	3.70588231
697.46307373	3.82352948
697.46307373	3.76470590
697.46722412	3.74509811
697.47125244	3.72549009
697.47558594	3.72549009
697.47955322	3.82352948
697.48370361	3.66666675
697.48767090	3.43137264
697.49169922	3.25490189
697.49169922	3.17647052
697.49584961	3.19607854
697.50006104	3.21568632
697.50421143	3.03921580
697.50817871	2.56862736
697.51232910	2.43137264
697.51647949	2.31372547
697.52069092	2.23529410
697.52069092	2.09803915
697.52459717	1.80392158
697.52880859	1.58823526
697.53283691	1.43137252
697.53283691	1.49019611
697.53692627	1.54901958
697.54107666	1.62745094
697.54504395	1.60784316
697.54913330	1.54901958
697.54913330	1.52941179
697.55328369	1.62745094
697.55743408	1.76470590
697.56152344	1.88235295
697.56152344	1.88235295
697.56555176	1.80392158
697.56970215	1.76470590
697.57385254	1.88235295
697.57794189	2.07843137
697.57794189	2.27450991
697.58190918	2.25490189
697.58605957	2.07843137
697.59014893	1.96078432
697.59014893	1.96078432
697.59423828	2.05882359
697.59826660	2.07843137
697.60253906	2.17647052
697.60650635	2.11764717
697.60650635	2.07843137
697.61065674	2.07843137
697.61468506	2.21568632
697.61877441	2.43137264
697.61877441	2.60784316
697.62292480	2.54901958
697.62701416	2.33333325
697.63116455	2.27450991
697.63519287	2.35294127
697.63519287	2.47058821
697.63928223	2.54901958
697.64343262	2.68627453
697.64752197	2.70588231
697.64752197	2.78431368
697.65148926	2.80392146
697.65557861	2.90196085
697.65979004	2.98039222
697.66381836	2.86274505
697.66381836	2.58823538
697.66790771	2.31372547
697.67205811	2.13725495
697.67620850	2.17647052
697.67620850	2.21568632
697.68029785	2.19607854
697.68444824	2.17647052
697.68847656	2.13725495
697.69256592	2.27450991
697.69665527	2.39215684
697.70074463	2.62745094
697.70489502	2.74509811
697.70489502	2.70588231
697.70892334	2.66666675
697.71301270	2.70588231
697.71716309	2.80392146
697.72119141	2.66666675
697.72528076	2.49019599
697.72943115	2.33333325
697.73345947	2.29411769
697.73345947	2.25490189
697.73767090	2.31372547
697.74163818	2.39215684
697.74578857	2.45098042
697.74993896	2.62745094
697.75402832	2.78431368
697.75805664	2.84313726
697.76220703	2.94117641
697.76220703	2.90196085
697.76629639	2.76470590
697.77038574	2.66666675
697.77453613	2.66666675
697.77453613	2.68627453
697.77856445	2.56862736
697.78265381	2.50980401
697.78674316	2.39215684
697.79089355	2.27450991
697.79089355	2.29411769
697.79504395	2.45098042
697.79901123	2.56862736
697.80322266	2.64705873
697.80322266	2.58823538
697.80725098	2.47058821
697.81134033	2.50980401
697.81555176	2.66666675
697.81945801	2.82352948
697.81945801	2.90196085
697.82366943	2.90196085
697.82781982	2.86274505
697.83178711	2.96078420
697.83178711	3.21568632
697.83587646	3.47058821
697.84002686	3.76470590
697.84411621	3.88235283
697.84826660	3.90196085
697.84826660	4.00000000
697.85223389	4.13725471
697.85644531	4.27450991
697.86053467	4.31372547
697.86053467	4.23529434
697.86456299	4.03921556
697.86865234	3.84313726
697.87280273	3.74509811
697.87689209	3.68627453
697.87689209	3.64705873
697.88104248	3.54901958
697.88507080	3.35294127
697.88916016	3.05882359
697.88916016	2.94117641
697.89324951	2.86274505
697.89739990	2.84313726
697.90148926	2.78431368
697.90551758	2.68627453
697.90551758	2.49019599
697.90966797	2.35294127
697.91381836	2.39215684
697.91790771	2.41176462
697.91790771	2.45098042
697.92187500	2.39215684
697.92602539	2.29411769
697.93017578	2.27450991
697.93432617	2.56862736
697.93835449	2.70588231
697.94262695	2.82352948
697.94653320	2.84313726
697.94653320	2.80392146
697.95062256	2.78431368
697.95465088	2.88235283
697.95874023	2.94117641
697.96289063	2.94117641
697.96728516	2.80392146
697.97119141	2.74509811
697.97515869	2.86274505
697.97515869	2.92156863
697.97930908	2.98039222
697.98339844	2.96078420
697.98754883	2.82352948
697.99151611	2.74509811
697.99566650	2.70588231
697.99975586	2.60784316
698.00390625	2.41176462
698.00390625	2.09803915
698.00805664	1.84313726
698.01202393	1.78431368
698.01611328	1.88235295
698.02020264	2.13725495
698.02441406	2.19607854
698.02850342	2.15686274
698.03253174	2.21568632
698.03253174	2.35294127
698.03662109	2.45098042
698.04083252	2.74509811
698.04498291	3.03921580
698.04498291	3.21568632
698.04888916	3.33333325
698.05303955	3.35294127
698.05718994	3.31372547
698.06127930	3.21568632
698.06127930	3.05882359
698.06524658	2.94117641
698.06951904	2.74509811
698.07354736	2.58823538
698.07354736	2.47058821
698.07763672	2.35294127
698.08160400	2.23529410
698.08575439	2.05882359
698.08984375	1.96078432
698.08984375	1.96078432
698.09405518	2.07843137
698.09820557	2.19607854
698.10217285	2.35294127
698.10217285	2.50980401
698.10632324	2.64705873
698.11041260	2.80392146
698.11456299	2.96078420
698.11853027	3.13725495
698.11853027	3.31372547
698.12268066	3.39215684
698.12677002	3.35294127
698.13092041	3.31372547
698.13092041	3.27450991
698.13494873	3.21568632
698.13903809	3.09803915
698.14324951	2.80392146
698.14733887	2.45098042
698.14733887	1.98039210
698.15142822	1.60784316
698.15551758	1.27450979
698.15960693	0.94117647
698.15960693	0.62745100
698.16369629	0.29411766
698.16772461	0.03921569
698.17175293	0.03921569
698.17596436	0.09803922
698.17596436	0.21568628
698.18005371	0.35294119
698.18420410	0.45098040
698.18835449	0.49019608
698.18835449	0.54901963
698.19226074	0.70588237
698.19641113	0.86274511
698.20050049	0.92156863
698.20465088	0.88235295
698.20465088	0.80392158
698.20867920	0.64705884
698.21276855	0.58823532
698.21685791	0.58823532
698.21685791	0.47058824
698.22094727	0.31372550
698.22503662	0.05882353
698.22912598	0.03921569
698.23327637	0.03921569
698.23742676	0.03921569
698.24151611	0.03921569
698.24554443	0.03921569
698.24554443	0.03921569
698.24963379	0.03921569
698.25378418	0.03921569
698.25799561	0.03921569
698.26196289	0.03921569
698.26611328	0.03921569
698.27026367	0.03921569
698.27435303	0.03921569
698.27435303	0.03921569
698.27825928	0.03921569
698.28259277	0.03921569
698.28656006	0.03921569
698.29077148	0.03921569
698.29479980	0.03921569
698.29876709	0.03921569
698.30291748	0.03921569
698.30291748	0.03921569
698.30706787	0.13725491
698.31115723	0.35294119
698.31530762	0.68627453
698.31530762	1.07843137
698.31927490	1.45098042
698.32336426	1.74509799
698.32751465	2.01960778
698.33160400	2.27450991
698.33160400	2.58823538
698.33563232	2.92156863
698.33978271	3.23529410
698.34387207	3.43137264
698.34387207	3.50980401
698.34802246	3.54901958
698.35205078	3.68627453
698.35614014	3.86274505
698.36035156	4.00000000
698.36035156	4.05882359
698.36444092	3.98039222
698.36853027	3.86274505
698.37255859	3.76470590
698.37255859	3.74509811
698.37664795	3.72549009
698.38079834	3.70588231
698.38482666	3.58823538
698.38891602	3.43137264
698.38891602	3.35294127
698.39300537	3.43137264
698.39709473	3.54901958
698.40124512	3.70588231
698.40124512	3.58823538
698.40527344	3.45098042
698.40942383	3.52941179
698.41357422	3.74509811
698.41766357	4.05882359
698.41766357	4.37254906
698.42163086	4.60784292
698.42578125	4.74509811
698.42993164	4.84313726
698.42993164	4.98039198
698.43408203	4.98039198
698.43817139	4.98039198
698.44213867	4.98039198
698.44628906	4.98039198
698.44628906	4.98039198
698.45043945	4.98039198
698.45452881	4.98039198
698.45867920	4.98039198
698.45867920	4.98039198
698.46264648	4.98039198
698.46673584	4.90196085
698.47088623	4.82352924
698.47503662	4.88235283
698.47503662	4.90196085
698.47906494	4.88235283
698.48315430	4.74509811
698.48730469	4.47058821
698.48730469	4.15686274
698.49145508	3.98039222
698.49554443	3.86274505
698.49957275	3.72549009
698.50366211	3.15686274
698.50781250	2.88235283
698.51177979	2.68627453
698.51586914	2.62745094
698.51586914	2.62745094
698.52001953	2.66666675
698.52410889	2.58823538
698.52825928	2.47058821
698.53247070	2.56862736
698.53637695	2.72549009
698.54052734	2.88235283
698.54467773	2.86274505
698.54467773	2.72549009
698.54864502	2.64705873
698.55279541	2.66666675
698.55688477	2.74509811
698.56097412	2.72549009
698.56500244	2.60784316
698.56909180	2.62745094
698.57330322	2.64705873
698.57330322	2.74509811
698.57739258	2.82352948
698.58148193	2.78431368
698.58557129	2.62745094
698.58557129	2.39215684
698.58966064	2.23529410
698.59381104	2.11764717
698.59790039	2.01960778
698.60205078	2.01960778
698.60205078	1.82352936
698.60601807	1.45098042
698.61016846	1.21568632
698.61431885	1.19607842
698.61431885	1.21568632
698.61828613	1.31372547
698.62249756	1.25490201
698.62652588	1.17647064
698.63067627	1.15686274
698.63067627	1.15686274
698.63482666	1.21568632
698.63879395	1.47058821
698.64282227	1.64705884
698.64282227	1.68627453
698.64697266	1.70588231
698.65106201	1.78431368
698.65515137	1.94117641
698.65930176	2.09803915
698.65930176	2.15686274
698.66339111	2.27450991
698.66754150	2.15686274
698.67169189	2.09803915
698.67169189	2.09803915
698.67565918	2.13725495
698.67980957	2.15686274
698.68389893	2.07843137
698.68804932	1.94117641
698.68804932	1.74509799
698.69195557	1.64705884
698.69616699	1.62745094
698.70025635	1.60784316
698.70025635	1.56862748
698.70440674	1.43137252
698.70855713	1.33333337
698.71252441	1.41176474
698.71679688	1.62745094
698.71679688	1.90196073
698.72076416	2.15686274
698.72485352	2.31372547
698.72894287	2.47058821
698.72894287	2.72549009
698.73303223	3.13725495
698.73718262	3.58823538
698.74127197	3.98039222
698.74542236	4.27450991
698.74542236	4.41176462
698.74957275	4.54901981
698.75347900	4.66666651
698.75769043	4.78431368
698.75769043	4.74509811
698.76177979	4.58823538
698.76574707	4.31372547
698.76995850	3.90196085
698.77410889	3.35294127
698.77819824	3.11764717
698.78222656	2.84313726
698.78631592	2.56862736
698.78631592	2.35294127
698.79040527	2.25490189
698.79461670	2.43137264
698.79852295	2.70588231
698.80261230	3.29411769
698.80676270	3.62745094
698.81091309	4.05882359
698.81506348	4.58823538
698.81506348	4.98039198
698.81903076	4.98039198
698.82318115	4.98039198
698.82727051	4.98039198
698.83142090	4.98039198
698.83551025	4.98039198
698.83947754	4.98039198
698.84356689	4.96078444
698.84356689	4.70588255
698.84777832	4.37254906
698.85168457	3.98039222
698.85589600	3.64705873
698.86004639	2.72549009
698.86419678	2.15686274
698.86828613	1.60784316
698.87225342	1.15686274
698.87225342	0.94117647
698.87652588	0.94117647
698.88055420	0.94117647
698.88464355	0.98039216
698.88464355	1.03921568
698.88867188	1.13725495
698.89282227	1.31372547
698.89691162	1.52941179
698.90112305	1.70588231
698.90112305	1.82352936
698.90509033	1.86274505
698.90917969	1.82352936
698.91326904	1.82352936
698.91326904	1.90196073
698.91748047	1.96078432
698.92156982	1.82352936
698.92553711	1.58823526
698.92968750	1.35294116
698.92968750	1.23529410
698.93383789	1.23529410
698.93798828	1.31372547
698.94207764	1.43137252
698.94207764	1.47058821
698.94610596	1.43137252
698.95019531	1.43137252
698.95428467	1.54901958
698.95843506	1.68627453
698.95843506	1.84313726
698.96270752	1.90196073
698.96655273	1.78431368
698.97070313	1.66666663
698.97070313	1.60784316
698.97485352	1.58823526
698.97869873	1.60784316
698.98284912	1.47058821
698.98693848	1.17647064
698.98693848	1.19607842
698.99114990	1.11764705
698.99517822	1.07843137
698.99926758	1.03921568
698.99926758	1.01960790
699.00341797	0.90196079
699.00756836	0.80392158
699.01165771	0.78431374
699.01568604	0.90196079
699.01568604	1.05882359
699.01977539	1.21568632
699.02386475	1.29411769
699.02801514	1.27450979
699.02801514	1.27450979
699.03198242	1.35294116
699.03619385	1.47058821
699.04022217	1.52941179
699.04437256	1.33333337
699.04852295	1.21568632
699.05249023	1.13725495
699.05664063	1.21568632
699.05664063	1.33333337
699.06079102	1.43137252
699.06488037	1.43137252
699.06884766	1.43137252
699.07299805	1.76470590
699.07714844	2.03921580
699.08129883	2.27450991
699.08532715	2.47058821
699.08532715	2.54901958
699.08953857	2.68627453
699.09344482	2.86274505
699.09765625	3.05882359
699.10174561	3.27450991
699.10577393	3.05882359
699.10992432	2.92156863
699.11401367	2.90196085
699.11401367	2.94117641
699.11816406	2.96078420
699.12213135	2.92156863
699.12628174	2.82352948
699.13043213	2.64705873
699.13458252	2.72549009
699.13854980	2.82352948
699.14257813	2.96078420
699.14257813	2.88235283
699.14672852	2.80392146
699.15081787	2.78431368
699.15502930	2.84313726
699.15502930	2.96078420
699.15899658	3.01960778
699.16314697	3.00000000
699.16729736	2.88235283
699.17138672	2.82352948
699.17138672	2.86274505
699.17559814	2.94117641
699.17950439	2.98039222
699.18365479	2.92156863
699.18365479	2.76470590
699.18780518	2.56862736
699.19195557	2.43137264
699.19592285	2.39215684
699.20007324	2.29411769
699.20007324	2.23529410
699.20422363	2.09803915
699.20825195	1.96078432
699.21240234	1.94117641
699.21240234	2.07843137
699.21661377	2.25490189
699.22058105	2.43137264
699.22473145	2.52941179
699.22875977	2.56862736
699.22875977	2.56862736
699.23297119	2.52941179
699.23699951	2.58823538
699.24102783	2.56862736
699.24102783	2.47058821
699.24511719	2.29411769
699.24914551	2.09803915
699.25323486	1.92156863
699.25732422	1.84313726
699.25732422	1.66666663
699.26153564	1.49019611
699.26550293	1.21568632
699.26965332	1.05882359
699.26965332	1.05882359
699.27368164	1.09803927
699.27789307	1.21568632
699.28179932	1.35294116
699.28594971	1.37254906
699.28594971	1.37254906
699.29010010	1.43137252
699.29431152	1.54901958
699.29840088	1.72549021
699.29840088	1.98039210
699.30249023	2.11764717
699.30645752	2.19607854
699.31060791	2.35294127
699.31475830	2.80392146
699.31878662	2.98039222
699.32287598	3.11764717
699.32702637	3.11764717
699.32702637	3.09803915
699.33117676	3.07843137
699.33508301	3.15686274
699.33923340	3.17647052
699.34344482	3.05882359
699.34747314	2.88235283
699.35162354	2.84313726
699.35577393	2.92156863
699.35577393	3.00000000
699.35980225	3.03921580
699.36383057	3.07843137
699.36804199	3.05882359
699.37200928	2.94117641
699.37615967	3.01960778
699.38024902	3.05882359
699.38439941	3.09803915
699.38439941	3.01960778
699.38854980	2.78431368
699.39251709	2.84313726
699.39666748	2.98039222
699.40081787	3.11764717
699.40496826	3.07843137
699.40893555	2.96078420
699.41302490	2.90196085
699.41302490	2.94117641
699.41717529	2.94117641
699.42132568	2.92156863
699.42541504	2.80392146
699.42541504	2.64705873
699.42944336	2.56862736
699.43353271	2.58823538
699.43768311	2.64705873
699.44171143	2.72549009
699.44171143	2.74509811
699.44573975	2.66666675
699.44989014	2.60784316
699.45404053	2.66666675
699.45404053	2.78431368
699.45812988	2.84313726
699.46209717	2.84313726
699.46624756	2.72549009
699.47045898	2.56862736
699.47045898	2.49019599
699.47448730	2.52941179
699.47863770	2.56862736
699.48254395	2.60784316
699.48254395	2.58823538
699.48675537	2.56862736
699.49090576	2.58823538
699.49505615	2.68627453
699.49902344	2.74509811
699.49902344	2.78431368
699.50311279	2.66666675
699.50726318	2.45098042
699.51141357	2.29411769
699.51141357	2.27450991
699.51556396	2.21568632
699.51953125	2.19607854
699.52362061	2.13725495
699.52777100	2.05882359
699.52777100	2.00000000
699.53192139	2.00000000
699.53588867	2.07843137
699.53997803	2.15686274
699.53997803	2.17647052
699.54412842	2.11764717
699.54821777	1.96078432
699.55230713	1.92156863
699.55645752	1.92156863
699.55645752	1.88235295
699.56060791	1.90196073
699.56463623	1.84313726
699.56872559	1.76470590
699.56872559	1.72549021
699.57281494	1.80392158
699.57690430	1.98039210
699.58099365	2.13725495
699.58514404	2.21568632
699.58917236	2.23529410
699.59326172	2.29411769
699.59735107	2.41176462
699.59735107	2.45098042
699.60156250	2.43137264
699.60552979	2.31372547
699.60961914	2.15686274
699.61383057	2.03921580
699.61791992	2.01960778
699.62207031	1.94117641
699.62603760	1.82352936
699.62603760	1.64705884
699.63012695	1.52941179
699.63427734	1.52941179
699.63842773	1.52941179
699.64257813	1.49019611
699.64654541	1.43137252
699.65063477	1.37254906
699.65484619	1.19607842
699.65484619	1.50980389
699.65893555	1.64705884
699.66296387	1.80392158
699.66711426	1.90196073
699.67120361	2.25490189
699.67529297	2.39215684
699.67932129	2.35294127
699.68353271	2.45098042
699.68353271	2.49019599
699.68756104	2.52941179
699.69171143	2.72549009
699.69580078	2.88235283
699.69580078	2.98039222
699.69995117	3.00000000
699.70397949	2.96078420
699.70812988	2.86274505
699.71215820	2.78431368
699.71215820	2.82352948
699.71612549	2.84313726
699.72033691	2.74509811
699.72442627	2.60784316
699.72442627	2.47058821
699.72857666	2.39215684
699.73248291	2.27450991
699.73663330	2.25490189
699.74072266	2.33333325
699.74072266	2.25490189
699.74487305	1.94117641
699.74884033	2.09803915
699.75305176	2.07843137
699.75305176	2.09803915
699.75714111	2.21568632
699.76129150	2.35294127
699.76544189	2.37254906
699.76953125	2.37254906
699.76953125	2.39215684
699.77355957	2.50980401
699.77770996	2.64705873
699.78179932	2.80392146
699.78179932	2.72549009
699.78582764	2.68627453
699.78997803	2.72549009
699.79406738	2.88235283
699.79821777	2.82352948
699.79821777	2.80392146
699.80218506	2.56862736
699.80627441	2.31372547
699.81066895	1.88235295
699.81066895	1.72549021
699.81457520	1.70588231
699.81866455	2.03921580
699.82263184	2.05882359
699.82678223	1.90196073
699.82678223	1.76470590
699.83093262	1.49019611
699.83508301	1.35294116
699.83917236	1.33333337
699.83917236	1.31372547
699.84320068	1.15686274
699.84735107	0.94117647
699.85144043	0.76470590
699.85559082	0.78431374
699.85961914	0.84313726
699.86370850	0.82352942
699.86779785	0.74509805
699.86779785	0.70588237
699.87188721	0.76470590
699.87597656	1.03921568
699.88000488	1.29411769
699.88415527	1.43137252
699.88830566	1.58823526
699.89239502	1.76470590
699.89660645	1.92156863
699.89660645	2.00000000
699.90057373	2.19607854
699.90472412	2.03921580
699.90881348	2.00000000
699.91284180	1.90196073
699.91693115	2.00000000
699.92108154	2.13725495
699.92517090	2.07843137
699.92517090	2.05882359
699.92919922	2.03921580
699.93328857	2.13725495
699.93743896	2.33333325
699.94158936	2.56862736
699.94555664	2.49019599
699.94964600	2.50980401
699.95385742	2.62745094
699.95385742	2.80392146
699.95794678	2.94117641
699.96228027	3.01960778
699.96600342	2.96078420
699.96600342	2.92156863
699.97015381	2.92156863
699.97424316	2.96078420
699.97839355	3.05882359
699.98254395	3.09803915
699.98254395	3.00000000
699.98651123	2.84313726
699.99060059	2.74509811
699.99475098	2.74509811
699.99475098	2.74509811
699.99884033	2.62745094
700.00292969	2.41176462
700.00701904	2.11764717
700.01116943	1.82352936
700.01116943	1.62745094
700.01525879	1.47058821
700.01922607	1.29411769
700.02349854	1.03921568
700.02349854	0.64705884
700.02752686	0.23529412
700.03167725	0.03921569
700.03564453	0.03921569
700.03979492	0.03921569
700.03979492	0.03921569
700.04394531	0.03921569
700.04797363	0.03921569
700.05218506	0.03921569
700.05218506	0.03921569
700.05603027	0.03921569
700.06030273	0.03921569
700.06445313	0.05882353
700.06848145	0.03921569
700.06848145	0.03921569
700.07244873	0.07843138
700.07666016	0.17647059
700.08068848	0.29411766
700.08068848	0.35294119
700.08489990	0.43137255
700.08886719	0.50980395
700.09301758	0.94117647
700.09710693	1.76470590
700.09710693	2.17647052
700.10125732	2.17647052
700.10534668	1.90196073
700.10949707	1.56862748
700.10949707	1.19607842
700.11340332	0.98039216
700.11761475	0.82352942
700.12176514	0.60784316
700.12585449	0.09803922
700.12585449	0.03921569
700.12988281	0.03921569
700.13397217	0.03921569
700.13812256	0.03921569
700.13812256	0.03921569
700.14208984	0.03921569
700.14624023	0.03921569
700.15051270	0.03921569
700.15454102	0.03921569
700.15863037	0.03921569
700.16265869	0.03921569
700.16668701	0.03921569
700.16668701	0.03921569
700.17089844	0.03921569
700.17492676	0.03921569
700.17913818	0.03921569
700.18310547	0.03921569
700.18725586	0.03921569
700.19146729	0.03921569
700.19555664	0.03921569
700.19555664	0.03921569
700.19952393	0.03921569
700.20367432	0.03921569
700.20776367	0.03921569
700.21185303	0.35294119
700.21588135	0.94117647
700.21997070	1.68627453
700.22406006	2.52941179
700.22406006	3.39215684
700.22827148	4.33333349
700.23236084	4.98039198
700.23645020	4.98039198
700.23645020	4.98039198
700.24047852	4.98039198
700.24462891	4.98039198
700.24877930	4.98039198
700.25274658	4.98039198
700.25274658	4.98039198
700.25689697	4.98039198
700.26104736	4.98039198
700.26513672	4.98039198
700.26513672	4.98039198
700.26916504	4.98039198
700.27325439	4.98039198
700.27740479	4.98039198
700.28149414	4.98039198
700.28149414	4.98039198
700.28552246	4.98039198
700.28955078	4.98039198
700.29376221	4.96078444
700.29376221	4.84313726
700.29779053	4.27450991
700.30200195	3.27450991
700.30603027	1.98039210
700.31011963	0.56862748
700.31011963	0.03921569
700.31427002	0.03921569
700.31842041	0.03921569
700.32257080	0.03921569
700.32257080	0.03921569
700.32647705	0.01960784
700.33062744	0.03921569
700.33477783	0.03921569
700.33892822	0.03921569
700.33892822	0.03921569
700.34283447	0.03921569
700.34698486	0.03921569
700.35107422	0.03921569
700.35107422	0.03921569
700.35528564	0.15686275
700.35925293	0.82352942
700.36352539	1.84313726
700.36743164	3.05882359
700.36743164	4.50980377
700.37158203	4.98039198
700.37573242	4.98039198
700.37969971	4.98039198
700.37969971	4.98039198
700.38391113	4.98039198
700.38800049	4.98039198
700.39208984	4.98039198
700.39617920	4.98039198
700.39617920	4.98039198
700.40026855	4.98039198
700.40441895	4.98039198
700.40844727	4.98039198
700.40844727	4.98039198
700.41253662	4.98039198
700.41662598	4.98039198
700.42083740	4.98039198
700.42492676	4.98039198
700.42895508	4.90196085
700.43304443	4.47058821
700.43719482	4.01960802
700.43719482	3.54901958
700.44128418	2.86274505
700.44531250	2.00000000
700.44946289	1.29411769
700.45349121	0.23529412
700.45764160	0.11764706
700.46173096	0.03921569
700.46588135	0.03921569
700.46588135	0.03921569
700.46990967	0.03921569
700.47399902	0.05882353
700.47814941	0.13725491
700.48223877	0.76470590
700.48620605	1.09803927
700.49047852	1.56862748
700.49450684	2.15686274
700.49450684	2.88235283
700.49859619	3.21568632
700.50256348	3.66666675
700.50671387	4.09803915
700.51086426	4.64705896
700.51501465	4.98039198
700.51904297	4.98039198
700.52313232	4.98039198
700.52313232	4.94117641
700.52728271	4.72549009
700.53137207	4.39215708
700.53552246	4.03921556
700.53552246	3.82352948
700.53948975	3.50980401
700.54364014	3.09803915
700.54779053	2.76470590
700.55187988	2.60784316
700.55187988	2.76470590
700.55584717	2.98039222
700.55993652	3.11764717
700.56408691	3.21568632
700.56408691	3.37254906
700.56829834	3.47058821
700.57238770	3.74509811
700.57647705	4.07843161
700.58050537	4.33333349
700.58050537	4.56862736
700.58465576	4.54901981
700.58874512	4.31372547
700.59289551	4.00000000
700.59289551	3.56862736
700.59686279	3.23529410
700.60101318	2.76470590
700.60510254	2.07843137
700.60925293	1.43137252
700.60925293	0.78431374
700.61322021	0.21568628
700.61730957	0.03921569
700.62152100	0.03921569
700.62152100	0.03921569
700.62554932	0.03921569
700.62957764	0.03921569
700.63372803	0.03921569
700.63787842	0.03921569
700.63787842	0.03921569
700.64196777	0.03921569
700.64599609	0.03921569
700.65014648	0.03921569
700.65014648	0.19607843
700.65429688	0.58823532
700.65832520	1.23529410
700.66253662	1.78431368
700.66650391	2.25490189
700.66650391	2.78431368
700.67065430	3.35294127
700.67480469	3.80392146
700.67889404	4.17647076
700.67889404	4.37254906
700.68286133	4.31372547
700.68695068	3.86274505
700.69110107	3.68627453
700.69519043	3.60784316
700.69921875	3.47058821
700.70349121	3.39215684
700.70751953	3.07843137
700.70751953	2.70588231
700.71160889	2.50980401
700.71575928	2.49019599
700.71972656	2.45098042
700.72387695	2.13725495
700.72796631	1.86274505
700.73229980	1.82352936
700.73626709	1.82352936
700.73626709	2.05882359
700.74023438	2.23529410
700.74438477	2.35294127
700.74847412	2.39215684
700.75256348	2.68627453
700.75659180	2.86274505
700.76068115	2.84313726
700.76489258	2.74509811
700.76489258	2.45098042
700.76904297	2.49019599
700.77301025	2.43137264
700.77716064	2.41176462
700.78118896	2.29411769
700.78540039	2.07843137
700.78955078	1.86274505
700.79351807	1.62745094
700.79351807	1.70588231
700.79760742	1.84313726
700.80175781	1.94117641
700.80590820	1.90196073
700.80590820	1.54901958
700.80993652	1.52941179
700.81408691	1.62745094
700.81823730	1.84313726
700.82232666	2.15686274
700.82232666	2.35294127
700.82629395	2.60784316
700.83056641	2.92156863
700.83459473	3.35294127
700.83459473	3.94117641
700.83856201	4.39215708
700.84259033	4.82352924
700.84667969	4.98039198
700.85089111	4.98039198
700.85089111	4.98039198
700.85504150	4.98039198
700.85906982	4.98039198
700.86315918	4.98039198
700.86315918	4.98039198
700.86724854	4.98039198
700.87133789	4.98039198
700.87548828	4.98039198
700.87957764	4.98039198
700.87957764	4.98039198
700.88360596	4.84313726
700.88769531	4.52941179
700.89190674	4.05882359
700.89190674	4.05882359
700.89593506	4.00000000
700.89996338	3.98039222
700.90405273	3.72549009
700.90820313	3.31372547
700.90820313	3.19607854
700.91241455	3.17647052
700.91650391	3.50980401
700.92047119	3.82352948
700.92047119	4.11764717
700.92462158	4.17647076
700.92877197	4.37254906
700.93273926	4.62745094
700.93695068	4.96078444
700.93695068	4.98039198
700.94110107	4.98039198
700.94512939	4.98039198
700.94927979	4.98039198
700.94927979	4.98039198
700.95330811	4.98039198
700.95751953	4.98039198
700.96148682	4.98039198
700.96557617	4.90196085
700.96557617	4.94117641
700.96960449	4.58823538
700.97375488	4.03921556
700.97790527	3.74509811
700.97790527	3.41176462
700.98199463	3.13725495
700.98614502	2.58823538
700.99011230	2.05882359
700.99426270	1.49019611
700.99835205	1.15686274
701.00250244	0.84313726
701.00646973	0.52941179
701.00646973	0.21568628
701.01055908	0.03921569
701.01477051	0.03921569
701.01879883	0.07843138
701.02301025	0.03921569
701.02703857	0.03921569
701.03112793	0.03921569
701.03527832	0.03921569
701.03527832	0.15686275
701.03924561	0.27450982
701.04351807	0.37254903
701.04748535	0.43137255
701.05163574	0.15686275
701.05578613	0.50980395
701.05969238	0.64705884
701.06390381	0.70588237
701.06390381	0.60784316
701.06799316	0.54901963
701.07208252	0.70588237
701.07623291	0.90196079
701.07623291	1.37254906
701.08026123	1.50980389
701.08441162	1.72549021
701.08850098	1.80392158
701.09265137	1.94117641
701.09265137	2.29411769
701.09661865	2.66666675
701.10076904	2.88235283
701.10491943	2.96078420
701.10491943	2.94117641
701.10894775	2.88235283
701.11297607	2.98039222
701.11712646	3.05882359
701.12127686	3.09803915
701.12127686	3.00000000
701.12536621	2.78431368
701.12945557	2.52941179
701.13342285	2.29411769
701.13342285	2.17647052
701.13763428	2.00000000
701.14172363	1.86274505
701.14587402	1.70588231
701.14990234	1.39215684
701.14990234	1.29411769
701.15399170	1.41176474
701.15814209	1.39215684
701.16229248	1.54901958
701.16229248	1.62745094
701.16625977	1.70588231
701.17053223	1.90196073
701.17449951	2.15686274
701.17864990	2.54901958
701.17864990	2.86274505
701.18261719	3.05882359
701.18670654	3.19607854
701.19085693	3.31372547
701.19085693	3.50980401
701.19494629	3.64705873
701.19909668	3.84313726
701.20306396	3.86274505
701.20727539	3.66666675
701.20727539	3.41176462
701.21136475	3.31372547
701.21545410	3.31372547
701.21960449	3.50980401
701.21960449	3.21568632
701.22363281	2.84313726
701.22778320	2.66666675
701.23187256	2.70588231
701.23602295	2.60784316
701.23602295	2.64705873
701.23999023	2.74509811
701.24414063	2.74509811
701.24822998	2.64705873
701.24822998	2.50980401
701.25231934	2.58823538
701.25640869	2.84313726
701.26049805	3.11764717
701.26452637	3.19607854
701.26873779	3.15686274
701.27288818	3.13725495
701.27691650	3.31372547
701.27691650	3.45098042
701.28100586	3.49019599
701.28515625	3.33333325
701.28924561	3.19607854
701.29327393	2.90196085
701.29748535	2.94117641
701.30151367	2.92156863
701.30566406	2.80392146
701.30566406	2.64705873
701.30963135	2.56862736
701.31372070	2.64705873
701.31787109	2.84313726
701.32196045	3.23529410
701.32604980	3.27450991
701.33001709	3.35294127
701.33428955	3.62745094
701.33428955	3.96078420
701.33831787	4.17647076
701.34252930	4.45098019
701.34649658	4.60784292
701.35064697	4.84313726
701.35479736	4.98039198
701.35882568	4.98039198
701.36297607	4.98039198
701.36297607	4.98039198
701.36700439	4.98039198
701.37109375	4.98039198
701.37524414	4.98039198
701.37524414	4.98039198
701.37933350	4.98039198
701.38342285	4.90196085
701.38745117	4.66666651
701.39154053	4.35294104
701.39154053	4.11764717
701.39575195	3.86274505
701.39978027	3.70588231
701.40386963	3.33333325
701.40386963	2.98039222
701.40802002	2.56862736
701.41217041	2.33333325
701.41613770	2.25490189
701.42016602	2.23529410
701.42016602	2.13725495
701.42431641	1.98039210
701.42852783	1.86274505
701.43261719	1.80392158
701.43261719	1.88235295
701.43664551	2.00000000
701.44073486	2.13725495
701.44488525	2.25490189
701.44891357	2.35294127
701.44891357	2.43137264
701.45300293	2.62745094
701.45715332	2.94117641
701.46130371	3.03921580
701.46130371	2.92156863
701.46539307	2.80392146
701.46954346	2.72549009
701.47344971	2.86274505
701.47760010	3.07843137
701.47760010	3.23529410
701.48175049	3.19607854
701.48590088	3.05882359
701.48999023	2.88235283
701.48999023	2.80392146
701.49395752	2.88235283
701.49804688	2.98039222
701.50219727	3.01960778
701.50640869	2.94117641
701.50640869	2.82352948
701.51043701	2.70588231
701.51446533	2.66666675
701.51855469	2.64705873
701.51855469	2.68627453
701.52276611	2.56862736
701.52679443	2.37254906
701.53088379	2.17647052
701.53497314	2.21568632
701.53912354	2.25490189
701.54309082	2.29411769
701.54724121	2.21568632
701.54724121	2.25490189
701.55139160	2.47058821
701.55554199	2.74509811
701.55963135	3.01960778
701.56353760	3.43137264
701.56774902	3.49019599
701.57183838	3.56862736
701.57586670	3.82352948
701.57586670	4.11764717
701.57995605	4.23529434
701.58410645	4.17647076
701.58825684	4.09803915
701.59240723	3.72549009
701.59649658	3.60784316
701.60052490	3.45098042
701.60461426	3.11764717
701.60461426	2.66666675
701.60870361	2.23529410
701.61291504	1.94117641
701.61688232	1.74509799
701.62097168	1.37254906
701.62512207	1.11764705
701.62921143	1.00000000
701.63336182	1.00000000
701.63336182	1.15686274
701.63739014	1.35294116
701.64147949	1.49019611
701.64556885	1.54901958
701.64556885	1.64705884
701.64959717	1.80392158
701.65374756	2.13725495
701.65789795	2.43137264
701.66204834	2.68627453
701.66204834	2.86274505
701.66613770	2.90196085
701.67010498	2.80392146
701.67425537	2.94117641
701.67425537	3.07843137
701.67840576	3.31372547
701.68249512	3.27450991
701.68640137	3.11764717
701.69055176	2.86274505
701.69055176	2.64705873
701.69470215	2.39215684
701.69885254	2.31372547
701.70300293	2.09803915
701.70300293	1.68627453
701.70697021	1.41176474
701.71112061	1.09803927
701.71527100	1.01960790
701.71936035	0.98039216
701.71936035	0.94117647
701.72344971	0.54901963
701.72753906	0.54901963
701.73162842	0.60784316
701.73162842	0.74509805
701.73571777	1.11764705
701.73968506	1.27450979
701.74383545	1.31372547
701.74798584	1.27450979
701.74798584	1.39215684
701.75213623	1.58823526
701.75610352	2.01960778
701.76031494	2.21568632
701.76031494	2.49019599
701.76440430	2.43137264
701.76849365	2.29411769
701.77264404	2.29411769
701.77661133	2.19607854
701.77661133	2.15686274
701.78082275	2.07843137
701.78479004	1.78431368
701.78900146	1.54901958
701.78900146	1.29411769
701.79302979	1.23529410
701.79711914	1.15686274
701.80126953	1.05882359
701.80541992	0.64705884
701.80950928	0.60784316
701.81347656	0.56862748
701.81762695	0.70588237
701.81762695	0.84313726
701.82177734	0.86274511
701.82586670	0.82352942
701.82983398	0.84313726
701.83398438	0.82352942
701.83825684	1.01960790
701.84222412	1.13725495
701.84631348	1.09803927
701.84631348	1.03921568
701.85046387	1.05882359
701.85449219	1.21568632
701.85858154	1.29411769
701.86279297	1.62745094
701.86676025	1.66666663
701.87091064	1.78431368
701.87500000	2.00000000
701.87500000	2.39215684
701.87908936	2.72549009
701.88305664	3.01960778
701.88720703	3.15686274
701.89129639	3.54901958
701.89550781	3.98039222
701.89965820	4.25490189
701.90362549	4.41176462
701.90362549	4.41176462
701.90777588	4.29411745
701.91192627	4.25490189
701.91601563	4.27450991
701.91601563	4.31372547
701.91998291	4.21568632
701.92413330	3.96078420
701.92828369	3.52941179
701.93237305	3.15686274
701.93237305	2.86274505
701.93646240	2.68627453
701.94042969	2.52941179
701.94464111	2.29411769
701.94464111	2.01960778
701.94866943	1.58823526
701.95288086	1.54901958
701.95684814	1.54901958
701.96105957	1.62745094
701.96105957	1.64705884
701.96514893	1.72549021
701.96923828	1.70588231
701.97332764	1.86274505
701.97332764	2.15686274
701.97747803	2.50980401
701.98150635	2.78431368
701.98559570	2.96078420
701.98968506	3.21568632
701.98968506	3.43137264
701.99377441	3.68627453
701.99798584	3.92156863
702.00207520	4.03921556
702.00207520	4.03921556
702.00634766	3.92156863
702.01013184	3.86274505
702.01422119	3.92156863
702.01849365	4.09803915
702.01849365	4.25490189
702.02246094	4.29411745
702.02642822	4.35294104
702.03063965	4.37254906
702.03063965	4.41176462
702.03472900	4.64705896
702.03887939	4.76470566
702.04302979	4.86274529
702.04699707	4.84313726
702.04699707	4.80392170
702.05114746	4.80392170
702.05523682	4.88235283
702.05938721	4.98039198
702.05938721	4.98039198
702.06347656	4.84313726
702.06750488	4.62745094
702.07159424	4.33333349
702.07568359	3.80392146
702.07971191	3.45098042
702.08386230	3.00000000
702.08801270	2.43137264
702.08801270	1.90196073
702.09216309	1.52941179
702.09625244	1.21568632
702.10021973	0.94117647
702.10443115	0.78431374
702.10845947	0.68627453
702.11260986	0.74509805
702.11669922	0.98039216
702.11669922	1.25490201
702.12072754	1.47058821
702.12481689	1.58823526
702.12896729	1.70588231
702.13305664	2.39215684
702.13708496	2.82352948
702.14123535	3.09803915
702.14538574	3.33333325
702.14538574	3.37254906
702.14947510	3.37254906
702.15350342	3.45098042
702.15759277	3.60784316
702.16174316	3.56862736
702.16589355	3.37254906
702.16992188	3.05882359
702.17401123	2.76470590
702.17401123	2.60784316
702.17816162	2.39215684
702.18231201	2.00000000
702.18640137	1.47058821
702.18640137	0.96078432
702.19049072	0.49019608
702.19451904	0.15686275
702.19860840	0.03921569
702.20269775	0.03921569
702.20269775	0.03921569
702.20666504	0.03921569
702.21087646	0.03921569
702.21502686	0.03921569
702.21502686	0.03921569
702.21911621	0.03921569
702.22314453	0.03921569
702.22735596	0.03921569
702.23150635	0.03921569
702.23150635	0.03921569
702.23547363	0.15686275
702.23962402	0.35294119
702.24359131	0.47058824
702.24359131	0.56862748
702.24774170	0.64705884
702.25183105	0.82352942
702.25592041	1.13725495
702.26007080	1.52941179
702.26007080	1.80392158
702.26409912	1.94117641
702.26837158	2.07843137
702.27233887	2.25490189
702.27233887	2.54901958
702.27648926	2.88235283
702.28045654	3.11764717
702.28460693	3.19607854
702.28875732	3.09803915
702.28875732	3.05882359
702.29284668	3.01960778
702.29687500	3.03921580
702.30096436	3.01960778
702.30096436	2.88235283
702.30511475	2.60784316
702.30920410	2.33333325
702.31317139	2.15686274
702.31750488	2.07843137
702.31750488	1.96078432
702.32147217	1.80392158
702.32562256	1.50980389
702.32971191	1.23529410
702.32971191	1.00000000
702.33374023	0.94117647
702.33782959	0.96078432
702.34204102	0.92156863
702.34606934	0.68627453
702.35009766	0.62745100
702.35424805	0.72549021
702.35845947	0.94117647
702.35845947	1.17647064
702.36248779	1.33333337
702.36645508	1.41176474
702.37060547	1.52941179
702.37469482	2.09803915
702.37890625	2.41176462
702.38293457	2.60784316
702.38696289	2.68627453
702.38696289	2.72549009
702.39111328	2.76470590
702.39526367	2.92156863
702.39935303	3.05882359
702.40350342	3.03921580
702.40747070	2.88235283
702.41162109	2.78431368
702.41577148	2.76470590
702.41577148	2.82352948
702.41986084	2.86274505
702.42382813	2.76470590
702.42797852	2.58823538
702.43206787	2.47058821
702.43621826	2.60784316
702.44018555	2.68627453
702.44445801	2.74509811
702.44445801	2.68627453
702.44848633	2.62745094
702.45263672	2.64705873
702.45672607	2.80392146
702.45672607	2.94117641
702.46075439	3.01960778
702.46490479	2.96078420
702.46899414	2.86274505
702.47314453	2.80392146
702.47314453	2.86274505
702.47711182	3.00000000
702.48126221	3.09803915
702.48535156	3.01960778
702.48535156	2.90196085
702.48950195	2.78431368
702.49346924	2.82352948
702.49768066	2.94117641
702.50177002	3.03921580
702.50177002	3.01960778
702.50579834	2.88235283
702.50982666	2.80392146
702.51391602	2.78431368
702.51391602	2.90196085
702.51806641	3.00000000
702.52221680	3.03921580
702.52636719	2.90196085
702.53051758	2.76470590
702.53051758	2.68627453
702.53448486	2.74509811
702.53857422	2.84313726
702.54272461	2.86274505
702.54272461	2.74509811
702.54675293	2.58823538
702.55084229	2.47058821
702.55499268	2.45098042
702.55908203	2.54901958
702.55908203	2.56862736
702.56323242	2.47058821
702.56713867	2.29411769
702.57153320	2.13725495
702.57153320	2.11764717
702.57550049	2.13725495
702.57958984	2.21568632
702.58355713	2.17647052
702.58770752	2.00000000
702.58770752	1.86274505
702.59185791	1.78431368
702.59600830	1.88235295
702.60009766	1.96078432
702.60009766	2.01960778
702.60406494	1.94117641
702.60815430	1.86274505
702.61236572	1.84313726
702.61651611	2.13725495
702.62048340	2.23529410
702.62457275	2.25490189
702.62866211	2.21568632
702.62866211	2.19607854
702.63281250	2.27450991
702.63684082	2.49019599
702.64099121	2.64705873
702.64514160	2.66666675
702.64923096	2.62745094
702.65325928	2.70588231
702.65747070	2.88235283
702.65747070	3.05882359
702.66149902	3.13725495
702.66564941	3.09803915
702.66973877	3.01960778
702.67376709	3.09803915
702.67785645	3.19607854
702.68200684	3.21568632
702.68615723	3.07843137
702.68615723	2.92156863
702.69018555	2.80392146
702.69427490	2.82352948
702.69848633	2.90196085
702.70251465	2.84313726
702.70666504	2.66666675
702.71063232	2.54901958
702.71466064	2.50980401
702.71466064	2.58823538
702.71887207	2.66666675
702.72302246	2.64705873
702.72711182	2.47058821
702.72711182	2.33333325
702.73107910	2.25490189
702.73522949	2.31372547
702.73931885	2.43137264
702.74346924	2.47058821
702.74346924	2.39215684
702.74755859	2.27450991
702.75164795	2.21568632
702.75573730	2.31372547
702.75573730	2.45098042
702.75982666	2.54901958
702.76379395	2.52941179
702.76800537	2.45098042
702.77209473	2.37254906
702.77209473	2.41176462
702.77624512	2.54901958
702.78015137	2.64705873
702.78448486	2.64705873
702.78448486	2.56862736
702.78845215	2.47058821
702.79260254	2.45098042
702.79681396	2.58823538
702.80078125	2.72549009
702.80078125	2.78431368
702.80493164	2.68627453
702.80902100	2.60784316
702.81317139	2.62745094
702.81317139	2.70588231
702.81713867	2.84313726
702.82128906	2.92156863
702.82537842	2.82352948
702.82952881	2.64705873
702.82952881	2.50980401
702.83349609	2.58823538
702.83758545	2.66666675
702.84191895	2.72549009
702.84191895	2.68627453
702.84582520	2.49019599
702.84997559	2.37254906
702.85394287	2.39215684
702.85815430	2.54901958
702.85815430	2.62745094
702.86230469	2.68627453
702.86639404	2.56862736
702.87048340	2.45098042
702.87048340	2.45098042
702.87451172	2.56862736
702.87860107	2.72549009
702.88275146	2.78431368
702.88684082	2.62745094
702.89080811	2.64705873
702.89501953	2.74509811
702.89910889	2.88235283
702.89910889	2.98039222
702.90325928	2.94117641
702.90722656	2.80392146
702.91149902	2.74509811
702.91546631	2.80392146
702.91961670	2.90196085
702.92364502	2.92156863
702.92773438	2.74509811
702.92773438	2.54901958
702.93182373	2.50980401
702.93597412	2.58823538
702.94006348	2.52941179
702.94403076	2.31372547
702.94824219	2.17647052
702.95227051	2.07843137
702.95648193	2.05882359
702.95648193	2.00000000
702.96051025	1.94117641
702.96459961	1.68627453
702.96875000	1.37254906
702.97283936	1.17647064
702.97686768	1.17647064
702.98101807	1.19607842
702.98510742	1.05882359
702.98510742	0.84313726
702.98919678	0.58823532
702.99334717	0.56862748
702.99749756	0.86274511
702.99749756	1.03921568
703.00146484	1.07843137
703.00555420	1.00000000
703.00970459	0.90196079
703.01379395	1.01960790
703.01379395	1.33333337
703.01782227	1.50980389
703.02197266	1.76470590
703.02612305	2.09803915
703.02612305	2.31372547
703.03009033	2.52941179
703.03424072	2.78431368
703.03839111	3.09803915
703.04248047	3.39215684
703.04248047	3.45098042
703.04656982	3.58823538
703.05059814	3.68627453
703.05468750	3.70588231
703.05468750	3.98039222
703.05883789	4.17647076
703.06298828	4.25490189
703.06689453	4.15686274
703.07116699	4.03921556
703.07116699	4.09803915
703.07519531	4.21568632
703.07934570	4.23529434
703.08349609	4.19607830
703.08349609	4.07843161
703.08746338	3.92156863
703.09155273	3.82352948
703.09576416	3.92156863
703.09979248	4.00000000
703.09979248	4.09803915
703.10382080	4.09803915
703.10803223	4.07843161
703.11224365	4.07843161
703.11224365	4.19607830
703.11621094	4.41176462
703.12017822	4.58823538
703.12469482	4.68627453
703.12847900	4.62745094
703.12847900	4.62745094
703.13250732	4.72549009
703.13665771	4.92156839
703.14062500	4.98039198
703.14062500	4.98039198
703.14483643	4.96078444
703.14898682	4.94117641
703.15307617	4.98039198
703.15722656	4.98039198
703.16125488	4.98039198
703.16534424	4.98039198
703.16949463	4.98039198
703.16949463	4.94117641
703.17346191	4.98039198
703.17755127	4.98039198
703.18170166	4.94117641
703.18579102	4.41176462
703.18994141	4.05882359
703.19390869	3.78431368
703.19805908	3.54901958
703.19805908	3.27450991
703.20214844	2.86274505
703.20635986	2.29411769
703.21051025	1.70588231
703.21447754	0.64705884
703.21862793	0.17647059
703.22271729	0.03921569
703.22686768	0.03921569
703.22686768	0.03921569
703.23083496	0.03921569
703.23498535	0.03921569
703.23907471	0.03921569
703.24322510	0.03921569
703.24719238	0.09803922
703.25146484	0.39215687
703.25555420	0.96078432
703.25555420	1.74509799
703.25958252	2.58823538
703.26361084	3.25490189
703.26776123	3.78431368
703.26776123	4.19607830
703.27185059	4.60784292
703.27593994	4.94117641
703.28009033	4.98039198
703.28411865	4.98039198
703.28411865	4.82352924
703.28820801	4.52941179
703.29229736	4.27450991
703.29644775	4.01960802
703.29644775	3.72549009
703.30047607	3.37254906
703.30462646	2.86274505
703.30871582	2.33333325
703.31286621	1.86274505
703.31286621	1.52941179
703.31689453	1.33333337
703.32104492	1.13725495
703.32519531	0.86274511
703.32519531	0.54901963
703.32928467	0.31372550
703.33331299	0.37254903
703.33764648	0.56862748
703.34149170	0.76470590
703.34149170	0.94117647
703.34558105	1.05882359
703.34967041	1.09803927
703.35388184	1.21568632
703.35388184	1.58823526
703.35784912	1.90196073
703.36199951	2.07843137
703.36608887	2.19607854
703.37023926	2.15686274
703.37023926	2.13725495
703.37420654	2.25490189
703.37847900	2.35294127
703.38244629	2.50980401
703.38244629	2.49019599
703.38653564	2.41176462
703.39056396	2.41176462
703.39471436	2.50980401
703.39886475	2.64705873
703.39886475	2.74509811
703.40301514	2.78431368
703.40698242	2.74509811
703.41113281	2.66666675
703.41113281	2.54901958
703.41522217	2.60784316
703.41937256	2.56862736
703.42346191	2.43137264
703.42749023	2.17647052
703.43164063	2.11764717
703.43572998	2.25490189
703.43988037	2.50980401
703.43988037	2.76470590
703.44390869	2.92156863
703.44799805	2.98039222
703.45214844	2.92156863
703.45623779	3.64705873
703.46038818	3.82352948
703.46441650	3.88235283
703.46844482	3.80392146
703.46844482	3.64705873
703.47265625	3.47058821
703.47674561	3.31372547
703.48071289	3.11764717
703.48486328	2.78431368
703.48901367	2.74509811
703.49310303	2.68627453
703.49725342	2.78431368
703.49725342	2.92156863
703.50115967	2.86274505
703.50531006	2.68627453
703.50939941	2.56862736
703.51354980	2.09803915
703.51757813	2.11764717
703.52172852	2.19607854
703.52587891	2.03921580
703.52587891	1.72549021
703.53002930	1.41176474
703.53399658	1.27450979
703.53808594	1.23529410
703.53808594	1.11764705
703.54229736	0.96078432
703.54638672	0.68627453
703.55047607	0.47058824
703.55450439	0.41176471
703.55450439	0.37254903
703.55859375	0.39215687
703.56268311	0.31372550
703.56683350	0.33333334
703.56683350	0.31372550
703.57080078	0.39215687
703.57507324	0.50980395
703.57916260	0.66666669
703.58319092	0.68627453
703.58319092	0.76470590
703.58721924	0.92156863
703.59149170	1.01960790
703.59558105	1.19607842
703.59558105	1.33333337
703.59960938	1.39215684
703.60363770	1.39215684
703.60766602	1.37254906
703.61181641	1.23529410
703.61181641	1.15686274
703.61596680	1.19607842
703.62011719	1.35294116
703.62420654	1.43137252
703.62420654	1.43137252
703.62823486	1.41176474
703.63226318	1.43137252
703.63647461	1.54901958
703.64056396	1.68627453
703.64056396	1.74509799
703.64459229	1.68627453
703.64874268	1.54901958
703.65283203	1.49019611
703.65283203	1.54901958
703.65698242	1.64705884
703.66094971	1.74509799
703.66510010	1.70588231
703.66925049	1.54901958
703.66925049	1.56862748
703.67333984	1.78431368
703.67749023	2.01960778
703.68145752	2.23529410
703.68145752	2.33333325
703.68560791	2.31372547
703.68969727	2.27450991
703.69378662	2.25490189
703.69775391	2.31372547
703.70190430	2.27450991
703.70605469	2.03921580
703.71020508	1.80392158
703.71020508	1.70588231
703.71423340	1.80392158
703.71838379	2.05882359
703.72247314	2.35294127
703.72662354	2.84313726
703.73059082	3.13725495
703.73474121	3.49019599
703.73883057	3.90196085
703.73883057	4.07843161
703.74291992	4.05882359
703.74707031	3.92156863
703.75109863	3.78431368
703.75518799	3.64705873
703.75927734	3.54901958
703.76342773	3.33333325
703.76751709	3.15686274
703.76751709	3.11764717
703.77160645	3.11764717
703.77575684	3.11764717
703.77984619	3.23529410
703.78399658	3.03921580
703.78796387	2.90196085
703.79205322	2.80392146
703.79620361	2.78431368
703.79620361	2.80392146
703.80035400	2.78431368
703.80450439	2.68627453
703.80847168	2.60784316
703.80847168	2.60784316
703.81262207	2.68627453
703.81665039	2.92156863
703.82073975	3.03921580
703.82476807	3.13725495
703.82476807	3.21568632
703.82897949	3.45098042
703.83306885	3.52941179
703.83728027	3.70588231
703.83728027	3.82352948
703.84118652	3.84313726
703.84533691	3.66666675
703.84948730	3.39215684
703.85363770	3.17647052
703.85363770	3.00000000
703.85754395	2.84313726
703.86175537	2.72549009
703.86578369	2.45098042
703.86578369	2.15686274
703.86999512	2.00000000
703.87396240	2.05882359
703.87805176	2.09803915
703.88220215	2.23529410
703.88220215	2.35294127
703.88629150	2.37254906
703.89044189	2.41176462
703.89459229	2.43137264
703.89459229	2.43137264
703.89862061	2.39215684
703.90270996	2.23529410
703.90686035	2.03921580
703.91101074	1.88235295
703.91101074	1.76470590
703.91497803	1.88235295
703.91912842	1.98039210
703.92321777	2.07843137
703.92321777	2.13725495
703.92724609	2.21568632
703.93145752	2.39215684
703.93548584	2.66666675
703.93951416	2.86274505
703.93951416	3.00000000
703.94372559	2.96078420
703.94763184	2.86274505
703.95178223	2.72549009
703.95178223	2.58823538
703.95587158	2.52941179
703.96008301	2.45098042
703.96411133	2.29411769
703.96820068	1.98039210
703.97235107	2.01960778
703.97650146	2.13725495
703.98059082	2.29411769
703.98059082	2.43137264
703.98461914	2.45098042
703.98870850	2.56862736
703.99279785	2.70588231
703.99694824	3.05882359
704.00091553	3.09803915
704.00506592	2.96078420
704.00927734	2.80392146
704.00927734	2.70588231
704.01336670	2.60784316
704.01745605	2.60784316
704.02142334	2.54901958
704.02563477	2.41176462
704.02972412	2.35294127
704.03375244	2.41176462
704.03796387	2.52941179
704.03796387	2.60784316
704.04193115	2.58823538
704.04614258	2.49019599
704.05023193	2.43137264
704.05419922	2.56862736
704.05847168	2.64705873
704.06250000	2.62745094
704.06658936	2.50980401
704.06658936	2.39215684
704.07061768	2.37254906
704.07470703	2.43137264
704.07879639	2.52941179
704.07879639	2.58823538
704.08294678	2.56862736
704.08709717	2.56862736
704.09106445	2.62745094
704.09521484	2.84313726
704.09521484	3.09803915
704.09930420	3.33333325
704.10345459	3.52941179
704.10760498	3.66666675
704.10760498	3.76470590
704.11163330	3.96078420
704.11572266	4.21568632
704.11981201	4.29411745
704.12390137	4.27450991
704.12390137	4.19607830
704.12792969	4.17647076
704.13201904	4.13725471
704.13616943	4.15686274
704.13616943	4.13725471
704.14025879	4.00000000
704.14447021	3.82352948
704.14843750	3.62745094
704.15258789	3.45098042
704.15258789	3.33333325
704.15673828	3.17647052
704.16070557	2.92156863
704.16485596	2.56862736
704.16485596	2.19607854
704.16900635	1.92156863
704.17309570	1.72549021
704.17712402	1.60784316
704.18127441	1.47058821
704.18127441	1.31372547
704.18542480	1.17647064
704.18951416	1.00000000
704.19366455	0.92156863
704.19366455	0.92156863
704.19763184	0.94117647
704.20178223	0.92156863
704.20587158	0.94117647
704.20996094	1.05882359
704.20996094	1.25490201
704.21392822	1.56862748
704.21801758	1.92156863
704.22222900	2.21568632
704.22222900	2.45098042
704.22637939	2.60784316
704.23046875	2.78431368
704.23443604	2.96078420
704.23858643	3.25490189
704.24267578	3.33333325
704.24682617	3.37254906
704.25091553	3.47058821
704.25091553	3.72549009
704.25494385	3.92156863
704.25915527	3.86274505
704.26324463	3.68627453
704.26727295	3.03921580
704.27142334	2.74509811
704.27539063	2.50980401
704.27960205	2.31372547
704.27960205	2.03921580
704.28369141	1.76470590
704.28771973	1.54901958
704.29180908	1.39215684
704.29595947	0.96078432
704.30010986	0.76470590
704.30419922	0.62745100
704.30816650	0.54901963
704.30816650	0.54901963
704.31231689	0.60784316
704.31646729	0.64705884
704.32055664	0.60784316
704.32055664	0.54901963
704.32458496	0.47058824
704.32867432	0.41176471
704.33288574	0.41176471
704.33691406	0.41176471
704.33691406	0.39215687
704.34094238	0.31372550
704.34509277	0.27450982
704.34924316	0.21568628
704.34924316	0.19607843
704.35333252	0.21568628
704.35748291	0.21568628
704.36145020	0.19607843
704.36560059	0.17647059
704.36560059	0.21568628
704.36975098	0.29411766
704.37384033	0.35294119
704.37786865	0.33333334
704.37786865	0.27450982
704.38195801	0.17647059
704.38604736	0.05882353
704.39019775	0.03921569
704.39428711	0.09803922
704.39428711	0.15686275
704.39837646	0.25490198
704.40246582	0.29411766
704.40661621	0.31372550
704.40661621	0.31372550
704.41070557	0.25490198
704.41467285	0.29411766
704.41882324	0.19607843
704.42291260	0.29411766
704.42291260	0.49019608
704.42706299	0.54901963
704.43103027	0.56862748
704.43518066	0.62745100
704.43518066	0.58823532
704.43927002	0.43137255
704.44342041	0.35294119
704.44738770	0.39215687
704.45159912	0.29411766
704.45159912	0.21568628
704.45574951	0.15686275
704.45983887	0.03921569
704.46398926	0.03921569
704.46398926	0.03921569
704.46795654	0.03921569
704.47210693	0.03921569
704.47619629	0.03921569
704.48034668	0.03921569
704.48034668	0.03921569
704.48449707	0.03921569
704.48852539	0.03921569
704.49261475	0.23529412
704.49261475	0.52941179
704.49676514	0.82352942
704.50091553	1.05882359
704.50482178	1.17647064
704.50897217	1.54901958
704.51312256	1.74509799
704.51715088	1.82352936
704.52124023	1.90196073
704.52124023	2.11764717
704.52545166	2.15686274
704.52954102	2.29411769
704.53363037	2.60784316
704.53771973	3.41176462
704.54168701	3.60784316
704.54583740	3.84313726
704.54998779	4.01960802
704.54998779	4.21568632
704.55407715	4.39215708
704.55810547	4.47058821
704.56219482	4.49019623
704.56634521	4.29411745
704.57043457	4.29411745
704.57446289	4.43137264
704.57855225	4.66666651
704.57855225	4.72549009
704.58270264	4.74509811
704.58685303	4.76470566
704.59094238	4.92156839
704.59094238	4.98039198
704.59490967	4.90196085
704.59912109	4.54901981
704.60333252	3.86274505
704.60736084	3.21568632
704.60736084	2.66666675
704.61145020	2.11764717
704.61547852	1.64705884
704.61962891	1.19607842
704.61962891	0.78431374
704.62371826	0.56862748
704.62774658	0.37254903
704.63183594	0.45098040
704.63592529	0.45098040
704.63592529	0.56862748
704.64001465	0.66666669
704.64410400	0.74509805
704.64819336	0.82352942
704.64819336	0.88235295
704.65228271	1.29411769
704.65643311	1.94117641
704.66058350	2.62745094
704.66473389	2.90196085
704.66473389	3.17647052
704.66876221	4.03921556
704.67285156	4.72549009
704.67694092	4.98039198
704.67694092	4.98039198
704.68090820	4.98039198
704.68505859	4.98039198
704.68920898	4.98039198
704.69335938	4.98039198
704.69335938	4.98039198
704.69744873	4.98039198
704.70147705	4.78431368
704.70562744	4.70588255
704.70562744	4.43137264
704.70977783	4.05882359
704.71386719	3.84313726
704.71783447	3.54901958
704.72192383	3.45098042
704.72192383	3.41176462
704.72607422	3.43137264
704.73016357	3.52941179
704.73437500	3.82352948
704.73437500	4.41176462
704.73864746	4.98039198
704.74243164	4.98039198
704.74658203	4.98039198
704.75067139	4.98039198
704.75067139	4.98039198
704.75469971	4.98039198
704.75878906	4.98039198
704.76293945	4.98039198
704.76293945	4.98039198
704.76708984	4.98039198
704.77099609	4.98039198
704.77520752	4.98039198
704.77941895	4.98039198
704.78338623	4.98039198
704.78759766	4.98039198
704.79156494	4.94117641
704.79156494	4.72549009
704.79571533	4.29411745
704.79986572	3.86274505
704.80395508	3.43137264
704.80798340	2.68627453
704.81213379	2.43137264
704.81622314	2.17647052
704.82037354	1.88235295
704.82037354	1.64705884
704.82446289	1.33333337
704.82843018	1.07843137
704.83264160	0.82352942
704.83673096	0.43137255
704.84075928	0.21568628
704.84478760	0.03921569
704.84893799	0.03921569
704.84893799	0.03921569
704.85302734	0.03921569
704.85723877	0.03921569
704.86132813	0.03921569
704.86132813	0.03921569
704.86547852	0.03921569
704.86944580	0.03921569
704.87359619	0.03921569
704.87768555	0.03921569
704.87768555	0.03921569
704.88171387	0.03921569
704.88580322	0.03921569
704.88995361	0.03921569
704.88995361	0.03921569
704.89410400	0.03921569
704.89801025	0.03921569
704.90222168	0.03921569
704.90631104	0.03921569
704.90631104	0.03921569
704.91046143	0.03921569
704.91442871	0.03921569
704.91857910	0.03921569
704.91857910	0.03921569
704.92266846	0.03921569
704.92687988	0.03921569
704.93096924	0.03921569
704.93493652	0.21568628
704.93493652	0.45098040
704.93908691	0.56862748
704.94323730	0.84313726
704.94738770	1.05882359
704.94738770	1.37254906
704.95147705	1.62745094
704.95544434	1.88235295
704.95959473	2.07843137
704.96362305	2.21568632
704.96362305	2.29411769
704.96765137	2.21568632
704.97180176	2.25490189
704.97595215	2.21568632
704.97595215	2.15686274
704.98010254	1.90196073
704.98425293	1.84313726
704.98822021	1.78431368
704.99243164	1.76470590
704.99243164	1.78431368
704.99645996	1.84313726
705.00054932	1.92156863
705.00469971	2.00000000
705.00469971	2.07843137
705.00872803	2.15686274
705.01281738	2.23529410
705.01690674	2.35294127
705.02105713	2.43137264
705.02105713	2.49019599
705.02502441	2.47058821
705.02911377	2.45098042
705.03332520	2.50980401
705.03332520	2.58823538
705.03741455	2.62745094
705.04150391	2.64705873
705.04559326	2.58823538
705.04968262	2.31372547
705.05383301	2.35294127
705.05786133	2.25490189
705.06195068	2.13725495
705.06195068	1.92156863
705.06610107	1.78431368
705.07019043	1.88235295
705.07434082	1.96078432
705.07843018	2.05882359
705.08258057	1.94117641
705.08673096	1.66666663
705.09075928	1.43137252
705.09075928	1.25490201
705.09472656	0.92156863
705.09887695	0.52941179
705.10314941	0.25490198
705.10711670	0.05882353
705.11120605	0.31372550
705.11517334	0.58823532
705.11944580	1.00000000
705.11944580	1.13725495
705.12347412	1.15686274
705.12762451	1.23529410
705.13159180	1.43137252
705.13159180	1.82352936
705.13574219	2.25490189
705.13983154	2.27450991
705.14392090	2.09803915
705.14807129	1.72549021
705.14807129	1.37254906
705.15197754	1.09803927
705.15612793	1.01960790
705.16027832	1.03921568
705.16027832	1.07843137
705.16448975	1.21568632
705.16845703	1.43137252
705.17254639	1.66666663
705.17669678	1.90196073
705.17669678	2.05882359
705.18084717	2.05882359
705.18481445	2.00000000
705.18896484	1.86274505
705.18896484	1.70588231
705.19305420	1.58823526
705.19720459	1.49019611
705.20123291	1.39215684
705.20550537	1.21568632
705.20550537	1.01960790
705.20947266	0.88235295
705.21362305	0.78431374
705.21771240	0.76470590
705.21771240	0.84313726
705.22167969	0.94117647
705.22583008	1.00000000
705.22998047	1.03921568
705.23400879	1.09803927
705.23400879	1.15686274
705.23809814	1.17647064
705.24230957	1.15686274
705.24645996	1.03921568
705.24645996	0.88235295
705.25048828	0.70588237
705.25445557	0.56862748
705.25854492	0.49019608
705.26269531	0.37254903
705.26269531	0.17647059
705.26678467	0.01960784
705.27093506	0.01960784
705.27508545	0.01960784
705.27508545	0.01960784
705.27899170	0.01960784
705.28314209	0.01960784
705.28723145	0.01960784
705.29150391	0.01960784
705.29547119	0.01960784
705.29956055	0.01960784
705.30364990	0.01960784
705.30364990	0.01960784
705.30786133	0.01960784
705.31182861	0.01960784
705.31591797	0.01960784
705.32006836	0.03921569
705.32427979	0.01960784
705.32824707	0.01960784
705.33245850	0.01960784
705.33245850	0.01960784
705.33654785	0.01960784
705.34057617	0.01960784
705.34478760	0.01960784
705.34875488	0.25490198
705.35284424	0.66666669
705.35693359	1.31372547
705.36102295	1.72549021
705.36102295	1.94117641
705.36505127	2.05882359
705.36920166	2.13725495
705.37335205	2.19607854
705.37744141	2.47058821
705.38140869	2.64705873
705.38555908	2.82352948
705.38970947	3.01960778
705.38970947	3.31372547
705.39379883	3.70588231
705.39794922	4.11764717
705.40185547	4.45098019
705.40185547	4.70588255
705.40606689	4.82352924
705.41021729	4.88235283
705.41430664	4.92156839
705.41845703	4.96078444
705.41845703	4.96078444
705.42242432	4.90196085
705.42657471	4.80392170
705.43072510	4.72549009
705.43072510	4.72549009
705.43469238	4.84313726
705.43884277	4.96078444
705.44293213	4.98039198
705.44708252	4.92156839
705.44708252	4.86274529
705.45123291	4.88235283
705.45520020	4.96078444
705.45941162	4.98039198
705.45941162	4.98039198
705.46343994	4.98039198
705.46746826	4.96078444
705.47155762	4.96078444
705.47583008	4.98039198
705.47583008	4.98039198
705.47979736	4.92156839
705.48394775	4.76470566
705.48803711	4.56862736
705.48803711	4.39215708
705.49212646	4.23529434
705.49621582	4.13725471
705.50030518	4.01960802
705.50439453	3.80392146
705.50439453	3.52941179
705.50842285	3.35294127
705.51257324	3.23529410
705.51666260	3.13725495
705.51666260	3.07843137
705.52093506	3.00000000
705.52478027	2.90196085
705.52886963	2.74509811
705.53308105	2.64705873
705.53308105	2.62745094
705.53710938	2.60784316
705.54125977	2.49019599
705.54547119	2.25490189
705.54547119	1.98039210
705.54943848	1.74509799
705.55358887	1.62745094
705.55773926	1.52941179
705.56170654	1.13725495
705.56591797	0.86274511
705.57000732	0.66666669
705.57415771	0.52941179
705.57415771	0.47058824
705.57812500	0.50980395
705.58221436	0.60784316
705.58636475	0.70588237
705.59045410	1.05882359
705.59448242	1.35294116
705.59863281	1.64705884
705.60284424	1.86274505
705.60284424	2.00000000
705.60687256	2.03921580
705.61102295	2.09803915
705.61499023	2.13725495
705.61907959	2.11764717
705.62322998	1.92156863
705.62731934	1.62745094
705.63140869	1.21568632
705.63140869	0.82352942
705.63543701	0.50980395
705.63958740	0.33333334
705.64367676	0.29411766
705.64782715	0.29411766
705.65179443	0.33333334
705.65588379	0.41176471
705.66009521	0.49019608
705.66009521	0.54901963
705.66412354	0.47058824
705.66821289	0.49019608
705.67248535	0.52941179
705.67248535	0.68627453
705.67651367	0.82352942
705.68060303	0.94117647
705.68457031	0.94117647
705.68872070	0.94117647
705.68872070	1.01960790
705.69281006	1.15686274
705.69696045	1.33333337
705.70104980	1.50980389
705.70104980	1.64705884
705.70507813	1.72549021
705.70916748	1.82352936
705.71331787	1.94117641
705.71734619	2.11764717
705.71734619	2.31372547
705.72143555	2.39215684
705.72558594	2.33333325
705.72967529	2.27450991
705.72967529	2.23529410
705.73382568	2.23529410
705.73797607	2.23529410
705.74194336	2.15686274
705.74609375	2.05882359
705.74609375	1.84313726
705.75018311	1.68627453
705.75421143	1.60784316
705.75842285	1.56862748
705.75842285	1.49019611
705.76245117	1.37254906
705.76654053	1.23529410
705.77062988	1.07843137
705.77478027	1.07843137
705.77478027	1.01960790
705.77874756	1.09803927
705.78289795	1.29411769
705.78698730	1.33333337
705.78698730	1.37254906
705.79119873	1.43137252
705.79522705	1.58823526
705.79943848	1.74509799
705.80346680	1.88235295
705.80346680	1.92156863
705.80755615	1.90196073
705.81158447	1.94117641
705.81567383	2.05882359
705.81567383	2.21568632
705.81982422	2.29411769
705.82391357	2.23529410
705.82806396	2.13725495
705.83215332	1.98039210
705.83636475	2.05882359
705.84039307	2.17647052
705.84448242	2.23529410
705.84448242	2.17647052
705.84851074	2.13725495
705.85266113	2.15686274
705.85675049	2.23529410
705.86077881	2.31372547
705.86480713	2.21568632
705.86895752	2.09803915
705.87304688	2.00000000
705.87304688	1.98039210
705.87725830	2.00000000
705.88134766	2.00000000
705.88549805	1.90196073
705.88946533	1.76470590
705.89355469	1.82352936
705.89770508	1.98039210
705.90179443	2.11764717
705.90179443	2.25490189
705.90576172	2.35294127
705.90991211	2.49019599
705.91400146	2.76470590
705.91815186	3.43137264
705.92224121	3.64705873
705.92633057	3.80392146
705.93041992	3.92156863
705.93041992	4.07843161
705.93457031	4.33333349
705.93853760	4.56862736
705.94268799	4.70588255
705.94268799	4.80392170
705.94683838	4.84313726
705.95092773	4.90196085
705.95495605	4.98039198
705.95910645	4.98039198
705.95910645	4.98039198
705.96319580	4.94117641
705.96740723	4.80392170
705.97149658	4.70588255
705.97149658	4.66666651
705.97546387	4.64705896
705.97955322	4.52941179
705.98376465	4.41176462
705.98779297	4.05882359
705.98779297	3.72549009
705.99194336	3.43137264
705.99597168	3.11764717
706.00012207	2.92156863
706.00012207	2.78431368
706.00421143	2.62745094
706.00817871	2.49019599
706.01245117	2.43137264
706.01641846	2.41176462
706.01641846	2.52941179
706.02044678	2.68627453
706.02478027	2.78431368
706.02868652	3.05882359
706.02868652	3.31372547
706.03271484	3.56862736
706.03692627	3.96078420
706.04101563	4.33333349
706.04522705	4.60784292
706.04522705	4.82352924
706.04919434	4.98039198
706.05334473	4.98039198
706.05743408	4.98039198
706.05743408	4.98039198
706.06164551	4.98039198
706.06555176	4.98039198
706.06970215	4.98039198
706.07379150	4.98039198
706.07379150	4.98039198
706.07794189	4.98039198
706.08190918	4.92156839
706.08605957	4.80392170
706.08605957	4.64705896
706.09020996	4.52941179
706.09429932	4.45098019
706.09838867	4.45098019
706.10247803	4.17647076
706.10656738	3.92156863
706.11065674	3.66666675
706.11480713	3.47058821
706.11480713	3.33333325
706.11877441	3.29411769
706.12292480	3.15686274
706.12701416	2.94117641
706.13116455	2.72549009
706.13519287	2.72549009
706.13934326	2.74509811
706.14343262	2.74509811
706.14343262	2.68627453
706.14752197	2.70588231
706.15155029	2.58823538
706.15570068	2.68627453
706.15985107	2.92156863
706.16394043	2.90196085
706.16809082	2.80392146
706.17205811	2.62745094
706.17205811	2.70588231
706.17620850	2.66666675
706.18029785	2.66666675
706.18444824	2.56862736
706.18847656	2.31372547
706.19256592	2.27450991
706.19671631	2.25490189
706.20086670	2.23529410
706.20086670	2.13725495
706.20483398	2.01960778
706.20892334	1.92156863
706.21307373	1.88235295
706.21307373	1.98039210
706.21722412	2.09803915
706.22125244	2.19607854
706.22540283	2.29411769
706.22943115	2.39215684
706.22943115	2.43137264
706.23358154	2.52941179
706.23773193	2.64705873
706.24194336	2.74509811
706.24194336	2.78431368
706.24591064	2.76470590
706.24993896	2.76470590
706.25402832	2.84313726
706.25811768	2.94117641
706.25811768	3.03921580
706.26220703	3.01960778
706.26641846	2.90196085
706.27038574	2.78431368
706.27038574	2.64705873
706.27459717	2.52941179
706.27856445	2.37254906
706.28265381	2.15686274
706.28680420	1.82352936
706.28680420	1.56862748
706.29095459	1.41176474
706.29498291	1.31372547
706.29907227	1.31372547
706.29907227	1.29411769
706.30316162	1.23529410
706.30731201	1.19607842
706.31146240	1.19607842
706.31549072	1.33333337
706.31549072	1.58823526
706.31970215	1.86274505
706.32366943	2.15686274
706.32775879	2.37254906
706.32775879	2.54901958
706.33178711	2.84313726
706.33587646	3.15686274
706.34008789	3.43137264
706.34417725	3.64705873
706.34417725	3.70588231
706.34820557	3.70588231
706.35241699	3.74509811
706.35638428	3.78431368
706.35638428	3.82352948
706.36053467	3.74509811
706.36468506	3.52941179
706.36865234	3.27450991
706.37274170	2.88235283
706.37695313	2.80392146
706.38110352	2.70588231
706.38519287	2.54901958
706.38519287	2.35294127
706.38922119	2.21568632
706.39331055	2.09803915
706.39739990	2.05882359
706.40155029	1.94117641
706.40551758	1.82352936
706.40966797	1.72549021
706.41381836	1.70588231
706.41381836	1.74509799
706.41796875	1.84313726
706.42193604	1.90196073
706.42608643	1.88235295
706.43017578	1.90196073
706.43432617	2.00000000
706.43847656	2.05882359
706.44244385	2.15686274
706.44244385	2.09803915
706.44659424	2.07843137
706.45068359	1.96078432
706.45483398	1.92156863
706.45880127	2.19607854
706.46301270	2.21568632
706.46710205	2.13725495
706.47119141	2.05882359
706.47119141	2.07843137
706.47521973	2.15686274
706.47949219	2.23529410
706.48345947	2.21568632
706.48345947	2.11764717
706.48754883	2.00000000
706.49176025	1.88235295
706.49603271	1.82352936
706.50012207	1.78431368
706.50012207	1.68627453
706.50396729	1.52941179
706.50817871	1.31372547
706.51226807	1.15686274
706.51226807	1.09803927
706.51623535	1.09803927
706.52038574	1.09803927
706.52441406	1.01960790
706.52862549	1.00000000
706.52862549	1.05882359
706.53259277	1.19607842
706.53668213	1.37254906
706.54083252	1.64705884
706.54083252	1.88235295
706.54498291	2.03921580
706.54895020	2.17647052
706.55297852	2.35294127
706.55718994	2.56862736
706.55718994	2.74509811
706.56134033	2.82352948
706.56542969	2.76470590
706.56945801	2.68627453
706.56945801	2.60784316
706.57354736	2.68627453
706.57769775	2.58823538
706.58184814	2.52941179
706.58575439	2.39215684
706.58575439	2.19607854
706.58996582	2.01960778
706.59411621	1.92156863
706.59826660	1.88235295
706.59826660	1.84313726
706.60217285	1.72549021
706.60638428	1.66666663
706.61041260	1.62745094
706.61456299	1.66666663
706.61456299	1.80392158
706.61865234	1.94117641
706.62261963	2.03921580
706.62677002	2.03921580
706.62677002	2.05882359
706.63092041	2.11764717
706.63488770	2.25490189
706.63903809	2.35294127
706.64318848	2.52941179
706.64727783	2.62745094
706.65142822	2.72549009
706.65533447	2.86274505
706.65533447	2.98039222
706.65954590	3.09803915
706.66357422	3.09803915
706.66778564	2.98039222
706.67193604	2.64705873
706.67590332	2.64705873
706.68005371	2.62745094
706.68420410	2.56862736
706.68420410	2.41176462
706.68829346	2.25490189
706.69244385	2.19607854
706.69647217	2.17647052
706.70056152	2.17647052
706.70477295	2.07843137
706.70874023	1.98039210
706.71282959	2.01960778
706.71282959	2.13725495
706.71697998	2.33333325
706.72106934	2.50980401
706.72521973	2.62745094
706.72918701	2.70588231
706.73333740	2.68627453
706.73742676	2.86274505
706.74163818	2.90196085
706.74163818	2.84313726
706.74554443	2.74509811
706.74969482	2.60784316
706.75378418	2.50980401
706.75378418	2.49019599
706.75793457	2.47058821
706.76208496	2.41176462
706.76611328	2.27450991
706.77020264	2.13725495
706.77020264	2.07843137
706.77429199	2.03921580
706.77844238	2.09803915
706.78240967	2.13725495
706.78240967	2.13725495
706.78656006	2.15686274
706.79071045	2.21568632
706.79479980	2.39215684
706.79888916	2.56862736
706.79888916	2.70588231
706.80291748	2.78431368
706.80706787	2.76470590
706.81121826	2.74509811
706.81121826	2.74509811
706.81518555	2.84313726
706.81945801	2.88235283
706.82342529	2.88235283
706.82763672	2.80392146
706.82763672	2.70588231
706.83172607	2.64705873
706.83563232	2.64705873
706.83978271	2.62745094
706.83978271	2.56862736
706.84393311	2.39215684
706.84808350	2.25490189
706.85205078	2.13725495
706.85620117	2.09803915
706.85620117	2.07843137
706.86029053	2.03921580
706.86444092	1.94117641
706.86853027	1.80392158
706.86853027	1.78431368
706.87255859	1.82352936
706.87664795	1.96078432
706.88079834	2.07843137
706.88494873	2.15686274
706.88494873	2.19607854
706.88891602	2.21568632
706.89306641	2.27450991
706.89715576	2.41176462
706.89715576	2.50980401
706.90130615	2.49019599
706.90539551	2.50980401
706.90936279	2.54901958
706.91351318	2.60784316
706.91760254	2.64705873
706.92181396	2.66666675
706.92584229	2.56862736
706.92584229	2.41176462
706.92993164	2.27450991
706.93408203	2.21568632
706.93817139	2.19607854
706.94213867	2.09803915
706.94647217	1.98039210
706.95043945	1.90196073
706.95458984	1.86274505
706.95458984	1.94117641
706.95855713	2.05882359
706.96270752	2.13725495
706.96679688	2.13725495
706.97088623	2.21568632
706.97497559	2.33333325
706.97906494	2.49019599
706.98309326	2.54901958
706.98309326	2.50980401
706.98730469	2.45098042
706.99139404	2.39215684
706.99542236	2.39215684
706.99951172	2.49019599
707.00366211	2.47058821
707.00781250	2.39215684
707.01202393	2.35294127
707.01202393	2.39215684
707.01593018	2.49019599
707.02001953	2.58823538
707.02416992	2.62745094
707.02416992	2.56862736
707.02844238	2.52941179
707.03259277	2.54901958
707.03637695	2.58823538
707.04052734	2.58823538
707.04052734	2.47058821
707.04461670	2.29411769
707.04864502	2.13725495
707.05279541	2.03921580
707.05279541	2.00000000
707.05694580	1.98039210
707.06109619	1.92156863
707.06518555	1.76470590
707.06915283	1.60784316
707.06915283	1.50980389
707.07330322	1.49019611
707.07739258	1.50980389
707.08160400	1.49019611
707.08160400	1.47058821
707.08557129	1.45098042
707.08959961	1.43137252
707.09381104	1.54901958
707.09796143	1.70588231
707.09796143	1.86274505
707.10186768	2.00000000
707.10601807	2.05882359
707.11016846	2.09803915
707.11016846	2.19607854
707.11425781	2.37254906
707.11840820	2.52941179
707.12237549	2.62745094
707.12652588	2.66666675
707.12652588	2.64705873
707.13067627	2.64705873
707.13482666	2.70588231
707.13897705	2.78431368
707.13897705	2.80392146
707.14294434	2.74509811
707.14703369	2.64705873
707.15124512	2.56862736
707.15533447	2.54901958
707.15533447	2.58823538
707.15948486	2.56862736
707.16345215	2.49019599
707.16754150	2.35294127
707.16754150	2.21568632
707.17181396	2.17647052
707.17572021	2.19607854
707.17980957	2.23529410
707.18383789	2.19607854
707.18804932	2.13725495
707.19201660	2.11764717
707.19616699	2.17647052
707.19616699	2.27450991
707.20031738	2.35294127
707.20446777	2.33333325
707.20849609	2.31372547
707.21252441	2.45098042
707.21667480	2.62745094
707.22076416	2.78431368
707.22485352	2.86274505
707.22485352	2.86274505
707.22888184	2.90196085
707.23303223	2.98039222
707.23718262	3.11764717
707.24133301	3.21568632
707.24542236	3.17647052
707.24938965	3.11764717
707.25354004	3.09803915
707.25354004	3.13725495
707.25762939	3.17647052
707.26177979	3.15686274
707.26580811	3.05882359
707.26989746	2.74509811
707.27410889	2.66666675
707.27819824	2.60784316
707.28247070	2.49019599
707.28247070	2.31372547
707.28643799	2.07843137
707.29040527	1.88235295
707.29455566	1.80392158
707.29455566	1.74509799
707.29870605	1.70588231
707.30261230	1.58823526
707.30676270	1.41176474
707.31091309	1.25490201
707.31091309	1.21568632
707.31506348	1.27450979
707.31903076	1.41176474
707.32312012	1.56862748
707.32312012	1.66666663
707.32733154	1.82352936
707.33142090	2.09803915
707.33544922	2.39215684
707.33953857	2.72549009
707.33953857	3.03921580
707.34368896	3.23529410
707.34783936	3.39215684
707.35192871	3.56862736
707.35192871	3.74509811
707.35595703	3.84313726
707.36004639	3.84313726
707.36419678	3.76470590
707.36828613	3.62745094
707.36828613	3.47058821
707.37243652	3.35294127
707.37646484	3.19607854
707.38055420	2.98039222
707.38055420	2.72549009
707.38470459	2.37254906
707.38867188	2.01960778
707.39282227	1.72549021
707.39691162	1.49019611
707.39691162	1.31372547
707.40106201	1.13725495
707.40509033	0.92156863
707.40911865	0.74509805
707.40911865	0.64705884
707.41339111	0.66666669
707.41735840	0.76470590
707.42150879	0.86274511
707.42572021	0.92156863
707.42572021	1.00000000
707.42968750	1.13725495
707.43377686	1.37254906
707.43792725	1.66666663
707.43792725	1.92156863
707.44189453	2.15686274
707.44604492	2.31372547
707.45019531	2.45098042
707.45440674	2.92156863
707.45843506	3.11764717
707.46246338	3.17647052
707.46655273	3.11764717
707.46655273	3.03921580
707.47070313	2.98039222
707.47479248	2.90196085
707.47894287	2.80392146
707.48284912	2.43137264
707.48706055	2.15686274
707.49114990	1.96078432
707.49530029	1.78431368
707.49530029	1.66666663
707.49945068	1.62745094
707.50341797	1.54901958
707.50750732	1.41176474
707.51171875	1.33333337
707.51562500	1.45098042
707.51983643	1.60784316
707.52392578	1.70588231
707.52392578	1.76470590
707.52795410	1.80392158
707.53204346	1.90196073
707.53613281	2.11764717
707.54022217	2.37254906
707.54443359	2.45098042
707.54852295	2.47058821
707.55255127	2.49019599
707.55255127	2.64705873
707.55664063	2.80392146
707.56085205	2.84313726
707.56494141	2.82352948
707.56494141	2.80392146
707.56890869	2.78431368
707.57305908	2.76470590
707.57714844	2.78431368
707.58129883	2.70588231
707.58129883	2.52941179
707.58544922	2.31372547
707.58941650	2.09803915
707.59350586	1.88235295
707.59350586	1.76470590
707.59765625	1.66666663
707.60174561	1.54901958
707.60577393	1.43137252
707.60986328	1.35294116
707.60986328	1.35294116
707.61401367	1.39215684
707.61816406	1.49019611
707.62231445	1.56862748
707.62231445	1.58823526
707.62646484	1.62745094
707.63043213	1.74509799
707.63458252	1.98039210
707.63867188	2.27450991
707.63867188	2.52941179
707.64270020	2.70588231
707.64678955	2.78431368
707.65093994	2.92156863
707.65093994	3.07843137
707.65502930	3.23529410
707.65905762	3.35294127
707.66314697	3.33333325
707.66741943	3.25490189
707.66741943	3.13725495
707.67150879	3.05882359
707.67559814	3.03921580
707.67956543	3.01960778
707.67956543	2.94117641
707.68371582	2.80392146
707.68786621	2.64705873
707.69201660	2.56862736
707.69616699	2.58823538
707.69616699	2.66666675
707.70013428	2.72549009
707.70422363	2.72549009
707.70837402	2.70588231
707.70837402	2.70588231
707.71252441	2.74509811
707.71649170	2.80392146
707.72058105	2.84313726
707.72485352	2.80392146
707.72485352	2.68627453
